# ~betaPic b
# Planet Teff 1700 K
# Planet log(g) 4 
# Planet Radius 1.65 Rjup
# Stellar Type A6V
# Stellar V-band Mag 3.86
# wavelength (microns) - planet-star flux ratio - geometric albedo (ignore)
       0.348596 4.54892E-06    1018.7457
       0.349067 4.56866E-06    1023.1651
       0.349540 4.58853E-06    1027.6151
       0.350012 4.60850E-06    1032.0889
       0.350486 4.62843E-06    1036.5508
       0.350960 4.64867E-06    1041.0838
       0.351435 4.66845E-06    1045.5129
       0.351910 4.68793E-06    1049.8754
       0.352386 4.70747E-06    1054.2519
       0.352862 4.72716E-06    1058.6629
       0.353340 4.74708E-06    1063.1222
       0.353818 4.76602E-06    1067.3650
       0.354296 4.78498E-06    1071.6115
       0.354775 4.80502E-06    1076.0988
       0.355255 4.82481E-06    1080.5303
       0.355736 4.84349E-06    1084.7144
       0.356217 4.86209E-06    1088.8799
       0.356699 4.88150E-06    1093.2270
       0.357181 4.90011E-06    1097.3956
       0.357664 4.91933E-06    1101.6989
       0.358148 4.93815E-06    1105.9144
       0.358633 4.95600E-06    1109.9121
       0.359118 4.97528E-06    1114.2296
       0.359603 4.99351E-06    1118.3114
       0.360090 5.01195E-06    1122.4427
       0.360577 5.03088E-06    1126.6805
       0.361064 5.04810E-06    1130.5388
       0.361553 5.06717E-06    1134.8089
       0.362042 5.08486E-06    1138.7711
       0.362532 5.10059E-06    1142.2925
       0.363022 5.11219E-06    1144.8909
       0.363513 5.13013E-06    1148.9094
       0.364005 5.14791E-06    1152.8900
       0.364497 5.16515E-06    1156.7504
       0.364990 5.18245E-06    1160.6258
       0.365484 5.19926E-06    1164.3913
       0.365978 5.21671E-06    1168.2995
       0.366473 5.23494E-06    1172.3806
       0.366969 5.25211E-06    1176.2253
       0.367465 5.26893E-06    1179.9926
       0.367962 5.28556E-06    1183.7176
       0.368460 5.30213E-06    1187.4279
       0.368958 5.31899E-06    1191.2040
       0.369457 5.33549E-06    1194.8994
       0.369957 5.35193E-06    1198.5818
       0.370457 5.36891E-06    1202.3846
       0.370958 5.38470E-06    1205.9200
       0.371460 5.40031E-06    1209.4173
       0.371962 5.41627E-06    1212.9902
       0.372466 5.43220E-06    1216.5573
       0.372969 5.44842E-06    1220.1906
       0.373474 5.46427E-06    1223.7400
       0.373979 5.47967E-06    1227.1882
       0.374485 5.49493E-06    1230.6062
       0.374991 5.50984E-06    1233.9462
       0.375499 5.52508E-06    1237.3599
       0.376006 5.54063E-06    1240.8410
       0.376515 5.55538E-06    1244.1449
       0.377024 5.56955E-06    1247.3183
       0.377534 5.58403E-06    1250.5599
       0.378045 5.59889E-06    1253.8884
       0.378556 5.61351E-06    1257.1640
       0.379068 5.62774E-06    1260.3501
       0.379581 5.64103E-06    1263.3260
       0.380094 5.65492E-06    1266.4376
       0.380608 5.66797E-06    1269.3605
       0.381123 5.68191E-06    1272.4803
       0.381639 5.69550E-06    1275.5246
       0.382155 5.70855E-06    1278.4480
       0.382672 5.72125E-06    1281.2928
       0.383189 5.73506E-06    1284.3837
       0.383708 5.74671E-06    1286.9926
       0.384227 5.76012E-06    1289.9966
       0.384746 5.77330E-06    1292.9480
       0.385267 5.78613E-06    1295.8226
       0.385788 5.79695E-06    1298.2446
       0.386310 5.80962E-06    1301.0834
       0.386832 5.82079E-06    1303.5833
       0.387355 5.83399E-06    1306.5398
       0.387879 5.84451E-06    1308.8953
       0.388404 5.85523E-06    1311.2967
       0.388929 5.86715E-06    1313.9660
       0.389455 5.87736E-06    1316.2523
       0.389982 5.88748E-06    1318.5187
       0.390510 5.89771E-06    1320.8111
       0.391038 5.90853E-06    1323.2326
       0.391567 5.91891E-06    1325.5581
       0.392096 5.92937E-06    1327.8998
       0.392627 5.93791E-06    1329.8139
       0.393158 5.94741E-06    1331.9404
       0.393690 5.95715E-06    1334.1230
       0.394222 5.96630E-06    1336.1719
       0.394755 5.97514E-06    1338.1503
       0.395289 5.98362E-06    1340.0507
       0.395824 5.99132E-06    1341.7750
       0.396359 5.99891E-06    1343.4752
       0.396895 6.00650E-06    1345.1746
       0.397432 6.01516E-06    1347.1135
       0.397970 6.02233E-06    1348.7204
       0.398508 6.02886E-06    1350.1814
       0.399047 6.03687E-06    1351.9751
       0.399587 6.04351E-06    1353.4617
       0.400127 6.04995E-06    1354.9055
       0.400668 6.05648E-06    1356.3668
       0.401210 6.06128E-06    1357.4426
       0.401753 6.06603E-06    1358.5063
       0.402296 6.07001E-06    1359.3983
       0.402841 6.07501E-06    1360.5173
       0.403385 6.07942E-06    1361.5056
       0.403931 6.08168E-06    1362.0116
       0.404477 6.08593E-06    1362.9632
       0.405024 6.08872E-06    1363.5870
       0.405572 6.09061E-06    1364.0113
       0.406121 6.09252E-06    1364.4396
       0.406670 6.09388E-06    1364.7426
       0.407220 6.09491E-06    1364.9749
       0.407771 6.09481E-06    1364.9520
       0.408323 6.09231E-06    1364.3919
       0.408875 6.07695E-06    1360.9528
       0.409428 6.08789E-06    1363.4025
       0.409982 6.08568E-06    1362.9066
       0.410536 6.07389E-06    1360.2671
       0.411091 6.06960E-06    1359.3063
       0.411647 6.06652E-06    1358.6161
       0.412204 6.05558E-06    1356.1662
       0.412762 6.04421E-06    1353.6186
       0.413320 6.02673E-06    1349.7059
       0.413879 6.01314E-06    1346.6612
       0.414439 5.99158E-06    1341.8320
       0.414999 5.93347E-06    1328.8180
       0.415561 5.92461E-06    1326.8342
       0.416123 5.89270E-06    1319.6881
       0.416686 5.83969E-06    1307.8169
       0.417249 5.76935E-06    1292.0629
       0.417814 5.66280E-06    1268.2019
       0.418379 5.54369E-06    1241.5267
       0.418945 5.36175E-06    1200.7798
       0.419511 5.05764E-06    1132.6743
       0.420079 4.51926E-06    1012.1020
       0.420647 3.30462E-06     740.0797
       0.421216 1.30661E-06     292.6201
       0.421786 1.51947E-06     340.2891
       0.422356 3.13370E-06     701.8017
       0.422927 3.53168E-06     790.9318
       0.423499 1.56429E-06     350.3279
       0.424072 9.29842E-07     208.2411
       0.424646 7.91255E-07     177.2040
       0.425220 1.16177E-06     260.1824
       0.425795 3.56176E-06     797.6661
       0.426371 3.64390E-06     816.0635
       0.426948 9.72471E-07     217.7878
       0.427525 2.93537E-07      65.7386
       0.428104 1.77407E-06     397.3083
       0.428683 1.27591E-06     285.7443
       0.429263 3.50358E-07      78.4637
       0.429843 4.31562E-06     966.4968
       0.430425 4.48547E-06    1004.5354
       0.431007 4.02311E-06     900.9880
       0.431590 2.12592E-06     476.1067
       0.432173 4.76093E-07     106.6224
       0.432758 1.40116E-06     313.7935
       0.433343 3.43363E-06     768.9720
       0.433929 2.49441E-06     558.6307
       0.434516 1.55873E-07      34.9082
       0.435104 4.52451E-06    1013.2781
       0.435693 5.04952E-06    1130.8554
       0.436282 5.12063E-06    1146.7806
       0.436872 5.00259E-06    1120.3456
       0.437463 4.64090E-06    1039.3444
       0.438055 3.85746E-06     863.8894
       0.438647 2.08671E-06     467.3259
       0.439240 3.12757E-08       7.0043
       0.439834 1.74952E-06     391.8097
       0.440429 3.91091E-06     875.8610
       0.441025 4.53190E-06    1014.9340
       0.441622 3.72997E-06     835.3392
       0.442219 1.37769E-07      30.8537
       0.442817 2.00094E-06     448.1169
       0.443416 5.18035E-06    1160.1564
       0.444016 5.45189E-06    1220.9666
       0.444616 5.52859E-06    1238.1456
       0.445218 5.52974E-06    1238.4020
       0.445820 5.47972E-06    1227.2014
       0.446423 5.36552E-06    1201.6250
       0.447027 5.16286E-06    1156.2389
       0.447631 4.80364E-06    1075.7895
       0.448237 4.11110E-06     920.6937
       0.448843 2.56277E-06     573.9412
       0.449450 1.32670E-07      29.7118
       0.450058 2.07557E-07      46.4829
       0.450667 3.40402E-06     762.3407
       0.451276 4.47894E-06    1003.0729
       0.451887 4.95597E-06    1109.9049
       0.452498 5.15297E-06    1154.0227
       0.453110 5.06039E-06    1133.2908
       0.453723 2.35845E-06     528.1830
       0.454337 1.39655E-06     312.7624
       0.454951 3.57348E-06     800.2916
       0.455566 5.19171E-06    1162.6993
       0.456183 5.47649E-06    1226.4758
       0.456800 5.56837E-06    1247.0546
       0.457417 5.60338E-06    1254.8948
       0.458036 5.61329E-06    1257.1128
       0.458656 5.60334E-06    1254.8846
       0.459276 5.59404E-06    1252.8033
       0.459897 5.57211E-06    1247.8916
       0.460519 5.53779E-06    1240.2056
       0.461142 5.50036E-06    1231.8235
       0.461766 5.44448E-06    1219.3078
       0.462390 5.36771E-06    1202.1142
       0.463016 5.27145E-06    1180.5582
       0.463642 5.12188E-06    1147.0610
       0.464269 4.89112E-06    1095.3822
       0.464897 4.51077E-06    1010.2019
       0.465526 3.74276E-06     838.2021
       0.466156 1.88259E-06     421.6121
       0.466786 1.21995E-08       2.7321
       0.467418 1.74659E-06     391.1549
       0.468050 3.90827E-06     875.2685
       0.468683 4.55404E-06    1019.8920
       0.469317 4.87358E-06    1091.4535
       0.469952 5.03603E-06    1127.8353
       0.470587 5.12201E-06    1147.0899
       0.471224 5.16224E-06    1156.0988
       0.471861 5.14893E-06    1153.1181
       0.472499 5.13658E-06    1150.3529
       0.473138 5.07649E-06    1136.8950
       0.473778 4.85920E-06    1088.2332
       0.474419 3.09237E-06     692.5450
       0.475061 2.09618E-06     469.4468
       0.475703 3.15728E-06     707.0823
       0.476347 4.82691E-06    1081.0025
       0.476991 5.00133E-06    1120.0637
       0.477636 5.04311E-06    1129.4208
       0.478282 5.04796E-06    1130.5072
       0.478929 5.03728E-06    1128.1149
       0.479577 5.01926E-06    1124.0788
       0.480226 5.00035E-06    1119.8429
       0.480875 4.97132E-06    1113.3415
       0.481526 4.92254E-06    1102.4179
       0.482177 4.88896E-06    1094.8984
       0.482829 4.87576E-06    1091.9421
       0.483482 4.84374E-06    1084.7698
       0.484136 4.82517E-06    1080.6114
       0.484791 4.79067E-06    1072.8852
       0.485447 4.77167E-06    1068.6305
       0.486103 4.73932E-06    1061.3853
       0.486761 4.70159E-06    1052.9362
       0.487419 4.65904E-06    1043.4071
       0.488078 4.63649E-06    1038.3571
       0.488739 4.60235E-06    1030.7101
       0.489400 4.56099E-06    1021.4483
       0.490062 4.51843E-06    1011.9163
       0.490724 4.48233E-06    1003.8307
       0.491388 4.42360E-06     990.6783
       0.492053 4.35185E-06     974.6111
       0.492718 4.34748E-06     973.6306
       0.493385 4.28162E-06     958.8814
       0.494052 4.18097E-06     936.3416
       0.494720 4.09976E-06     918.1538
       0.495389 3.99706E-06     895.1551
       0.496060 3.79884E-06     850.7628
       0.496730 3.38610E-06     758.3269
       0.497402 2.20551E-06     493.9300
       0.498075 7.25133E-07     162.3958
       0.498749 1.95422E-06     437.6531
       0.499423 3.17099E-06     710.1539
       0.500099 3.60729E-06     807.8649
       0.500775 3.75038E-06     839.9088
       0.501453 3.80320E-06     851.7388
       0.502131 3.81074E-06     853.4268
       0.502810 3.79349E-06     849.5631
       0.503490 3.77506E-06     845.4363
       0.504171 3.75240E-06     840.3617
       0.504853 3.72854E-06     835.0188
       0.505536 3.69641E-06     827.8230
       0.506220 3.66136E-06     819.9740
       0.506904 3.62167E-06     811.0853
       0.507590 3.58336E-06     802.5040
       0.508277 3.54469E-06     793.8435
       0.508964 3.50406E-06     784.7444
       0.509652 3.45917E-06     774.6911
       0.510342 3.41321E-06     764.3982
       0.511032 3.36803E-06     754.2808
       0.511723 3.32431E-06     744.4891
       0.512415 3.27834E-06     734.1952
       0.513109 3.22097E-06     721.3465
       0.513803 3.13030E-06     701.0395
       0.514497 2.20527E-06     493.8779
       0.515193 1.70283E-06     381.3537
       0.515890 2.73692E-06     612.9426
       0.516588 2.98294E-06     668.0391
       0.517287 2.96701E-06     664.4701
       0.517986 2.93058E-06     656.3132
       0.518687 2.90187E-06     649.8827
       0.519389 2.85508E-06     639.4040
       0.520091 2.81627E-06     630.7117
       0.520795 2.76690E-06     619.6559
       0.521499 2.72718E-06     610.7607
       0.522204 2.68310E-06     600.8895
       0.522911 2.63853E-06     590.9063
       0.523618 2.58966E-06     579.9614
       0.524326 2.54634E-06     570.2611
       0.525035 2.50267E-06     560.4814
       0.525745 2.45657E-06     550.1554
       0.526457 2.40929E-06     539.5673
       0.527169 2.36480E-06     529.6048
       0.527882 2.31777E-06     519.0727
       0.528596 2.27512E-06     509.5194
       0.529311 2.22617E-06     498.5568
       0.530027 2.18232E-06     488.7383
       0.530743 2.13366E-06     477.8401
       0.531461 2.09042E-06     468.1561
       0.532180 2.04390E-06     457.7380
       0.532900 1.99777E-06     447.4072
       0.533621 1.95124E-06     436.9854
       0.534343 1.90781E-06     427.2605
       0.535065 1.86307E-06     417.2414
       0.535789 1.81724E-06     406.9775
       0.536514 1.77075E-06     396.5661
       0.537239 1.72501E-06     386.3215
       0.537966 1.68187E-06     376.6594
       0.538694 1.63649E-06     366.4973
       0.539422 1.59008E-06     356.1035
       0.540152 1.54676E-06     346.4027
       0.540882 1.50499E-06     337.0464
       0.541614 1.46091E-06     327.1750
       0.542347 1.41789E-06     317.5409
       0.543080 1.37528E-06     307.9974
       0.543815 1.33109E-06     298.1011
       0.544550 1.29109E-06     289.1432
       0.545287 1.25308E-06     280.6307
       0.546024 1.21155E-06     271.3311
       0.546763 1.17046E-06     262.1284
       0.547502 1.13070E-06     253.2235
       0.548243 1.09020E-06     244.1532
       0.548984 1.05126E-06     235.4330
       0.549727 1.01360E-06     226.9994
       0.550471 9.74568E-07     218.2576
       0.551215 9.37171E-07     209.8823
       0.551961 9.00232E-07     201.6098
       0.552707 8.63136E-07     193.3019
       0.553455 8.27486E-07     185.3181
       0.554203 7.91359E-07     177.2273
       0.554953 7.56258E-07     169.3663
       0.555704 7.23167E-07     161.9555
       0.556455 6.89867E-07     154.4978
       0.557208 6.54697E-07     146.6214
       0.557962 6.22908E-07     139.5021
       0.558716 5.91781E-07     132.5312
       0.559472 5.61559E-07     125.7629
       0.560229 5.30573E-07     118.8235
       0.560986 5.00733E-07     112.1408
       0.561745 4.72588E-07     105.8375
       0.562505 4.43550E-07      99.3343
       0.563266 4.17000E-07      93.3884
       0.564028 3.89740E-07      87.2834
       0.564791 3.64419E-07      81.6127
       0.565554 3.38610E-07      75.8327
       0.566319 3.14483E-07      70.4295
       0.567085 2.90334E-07      65.0212
       0.567852 2.61435E-07      58.5492
       0.568621 8.45971E-08      18.9458
       0.569390 1.37434E-07      30.7789
       0.570160 2.05385E-07      45.9967
       0.570931 1.86747E-07      41.8227
       0.571703 1.68812E-07      37.8060
       0.572476 1.51710E-07      33.9759
       0.573251 1.35421E-07      30.3280
       0.574026 1.19612E-07      26.7875
       0.574803 1.04970E-07      23.5084
       0.575580 9.15858E-08      20.5109
       0.576358 7.91303E-08      17.7215
       0.577138 6.75675E-08      15.1319
       0.577919 5.71489E-08      12.7987
       0.578700 4.77195E-08      10.6869
       0.579483 3.90505E-08       8.7455
       0.580267 3.12789E-08       7.0050
       0.581052 2.44512E-08       5.4759
       0.581838 1.86433E-08       4.1752
       0.582625 1.37544E-08       3.0803
       0.583413 9.59624E-09       2.1491
       0.584202 6.27654E-09       1.4057
       0.584992 3.78050E-09       0.8467
       0.585783 2.01910E-09       0.4522
       0.586575 8.64246E-10       0.1936
       0.587369 2.54797E-10       0.0571
       0.588163 2.38093E-11       0.0053
       0.588959 1.35064E-12       0.0003
       0.589755 8.55346E-13       0.0002
       0.590553 9.80993E-11       0.0220
       0.591352 5.30261E-10       0.1188
       0.592152 1.47218E-09       0.3297
       0.592953 3.10163E-09       0.6946
       0.593755 5.55519E-09       1.2441
       0.594558 9.10809E-09       2.0398
       0.595362 1.36207E-08       3.0504
       0.596167 1.92668E-08       4.3149
       0.596974 2.61400E-08       5.8541
       0.597781 3.43749E-08       7.6984
       0.598590 4.45039E-08       9.9668
       0.599399 5.57941E-08      12.4953
       0.600210 6.87172E-08      15.3894
       0.601022 8.32531E-08      18.6448
       0.601835 9.96847E-08      22.3247
       0.602649 1.17871E-07      26.3976
       0.603464 1.37094E-07      30.7026
       0.604280 1.58230E-07      35.4361
       0.605097 1.82483E-07      40.8675
       0.605916 2.08776E-07      46.7560
       0.606735 2.36300E-07      52.9201
       0.607556 2.66439E-07      59.6699
       0.608378 2.98135E-07      66.7682
       0.609201 3.32470E-07      74.4577
       0.610025 3.69666E-07      82.7878
       0.610850 4.08091E-07      91.3932
       0.611676 4.49222E-07     100.6046
       0.612503 4.92117E-07     110.2112
       0.613332 5.37447E-07     120.3629
       0.614161 5.85328E-07     131.0861
       0.614992 1.22680E-07      27.4745
       0.615824 1.07655E-07      24.1097
       0.616657 7.38044E-07     165.2872
       0.617491 8.02768E-07     179.7825
       0.618326 8.62658E-07     193.1949
       0.619162 9.25674E-07     207.3076
       0.620000 9.91926E-07     222.1449
       0.620838 1.06018E-06     237.4298
       0.621678 1.13118E-06     253.3306
       0.622519 1.20588E-06     270.0605
       0.623361 1.28240E-06     287.1964
       0.624204 1.35970E-06     304.5094
       0.625048 1.43840E-06     322.1349
       0.625894 1.51978E-06     340.3590
       0.626740 1.60962E-06     360.4785
       0.627588 1.70092E-06     380.9255
       0.628437 1.79577E-06     402.1688
       0.629287 1.89334E-06     424.0203
       0.630138 1.99062E-06     445.8062
       0.630991 2.08478E-06     466.8919
       0.631844 2.19439E-06     491.4408
       0.632699 2.30730E-06     516.7275
       0.633554 2.41495E-06     540.8365
       0.634411 2.52565E-06     565.6275
       0.635269 2.64263E-06     591.8245
       0.636129 2.76428E-06     619.0685
       0.636989 2.88881E-06     646.9578
       0.637851 2.99867E-06     671.5623
       0.638713 3.13903E-06     702.9947
       0.639577 3.27069E-06     732.4820
       0.640442 3.40357E-06     762.2403
       0.641309 3.53996E-06     792.7859
       0.642176 3.68388E-06     825.0156
       0.643045 3.81164E-06     853.6294
       0.643914 3.94004E-06     882.3837
       0.644785 4.06427E-06     910.2062
       0.645657 4.22188E-06     945.5035
       0.646531 4.35960E-06     976.3451
       0.647405 4.46778E-06    1000.5728
       0.648281 4.62284E-06    1035.2999
       0.649158 4.83057E-06    1081.8212
       0.650036 5.04682E-06    1130.2501
       0.650915 5.22739E-06    1170.6911
       0.651795 5.38706E-06    1206.4489
       0.652677 5.55653E-06    1244.4018
       0.653560 5.73887E-06    1285.2388
       0.654444 5.91884E-06    1325.5417
       0.655329 6.10876E-06    1368.0749
       0.656215 6.28930E-06    1408.5072
       0.657103 6.40085E-06    1433.4911
       0.657992 6.55127E-06    1467.1779
       0.658882 6.83796E-06    1531.3829
       0.659773 7.05414E-06    1579.7973
       0.660665 7.19053E-06    1610.3407
       0.661559 7.48864E-06    1677.1041
       0.662454 7.71145E-06    1727.0022
       0.663350 7.90448E-06    1770.2325
       0.664247 8.12130E-06    1818.7911
       0.665145 8.37296E-06    1875.1496
       0.666045 8.66496E-06    1940.5444
       0.666946 8.86780E-06    1985.9708
       0.667848 9.03307E-06    2022.9842
