# ~HR8799e 
# Planet Teff 1150 K
# Planet log(g) 4 
# Planet Radius 1.17 Rjup
# Stellar Type A5V
# Stellar V-band Mag 5.96
# wavelength (microns) - planet-star flux ratio - geometric albedo (ignore)
       0.348596 6.17099E-09       5.3092
       0.349067 6.20245E-09       5.3363
       0.349540 6.23491E-09       5.3642
       0.350012 6.26715E-09       5.3920
       0.350486 6.29947E-09       5.4198
       0.350960 6.33306E-09       5.4487
       0.351435 6.36590E-09       5.4769
       0.351910 6.39898E-09       5.5054
       0.352386 6.43256E-09       5.5343
       0.352862 6.46597E-09       5.5630
       0.353340 6.49969E-09       5.5920
       0.353818 6.53260E-09       5.6203
       0.354296 6.56658E-09       5.6496
       0.354775 6.60172E-09       5.6798
       0.355255 6.63680E-09       5.7100
       0.355736 6.67187E-09       5.7402
       0.356217 6.70667E-09       5.7701
       0.356699 6.74170E-09       5.8002
       0.357181 6.77739E-09       5.8310
       0.357664 6.81369E-09       5.8622
       0.358148 6.84989E-09       5.8933
       0.358633 6.88592E-09       5.9243
       0.359118 6.92214E-09       5.9555
       0.359603 6.95895E-09       5.9872
       0.360090 6.99701E-09       6.0199
       0.360577 7.03396E-09       6.0517
       0.361064 7.07141E-09       6.0839
       0.361553 7.11039E-09       6.1174
       0.362042 7.14840E-09       6.1502
       0.362532 7.18422E-09       6.1810
       0.363022 7.21951E-09       6.2113
       0.363513 7.25823E-09       6.2446
       0.364005 7.29876E-09       6.2795
       0.364497 7.33865E-09       6.3138
       0.364990 7.37880E-09       6.3484
       0.365484 7.41960E-09       6.3835
       0.365978 7.45999E-09       6.4182
       0.366473 7.50299E-09       6.4552
       0.366969 7.54521E-09       6.4915
       0.367465 7.58643E-09       6.5270
       0.367962 7.62958E-09       6.5641
       0.368460 7.67247E-09       6.6010
       0.368958 7.71574E-09       6.6383
       0.369457 7.75910E-09       6.6756
       0.369957 7.80361E-09       6.7139
       0.370457 7.84884E-09       6.7528
       0.370958 7.89357E-09       6.7913
       0.371460 7.93879E-09       6.8302
       0.371962 7.98513E-09       6.8700
       0.372466 8.03158E-09       6.9100
       0.372969 8.07845E-09       6.9503
       0.373474 8.12641E-09       6.9916
       0.373979 8.17463E-09       7.0331
       0.374485 8.22298E-09       7.0747
       0.374991 8.27127E-09       7.1162
       0.375499 8.32017E-09       7.1583
       0.376006 8.37109E-09       7.2021
       0.376515 8.42232E-09       7.2462
       0.377024 8.47297E-09       7.2897
       0.377534 8.52505E-09       7.3346
       0.378045 8.57773E-09       7.3799
       0.378556 8.63008E-09       7.4249
       0.379068 8.68416E-09       7.4714
       0.379581 8.73704E-09       7.5169
       0.380094 8.79170E-09       7.5640
       0.380608 8.84628E-09       7.6109
       0.381123 8.90285E-09       7.6596
       0.381639 8.95981E-09       7.7086
       0.382155 9.01561E-09       7.7566
       0.382672 9.07397E-09       7.8068
       0.383189 9.13320E-09       7.8578
       0.383708 9.19096E-09       7.9075
       0.384227 9.25116E-09       7.9593
       0.384746 9.31306E-09       8.0125
       0.385267 9.37432E-09       8.0652
       0.385788 9.43576E-09       8.1181
       0.386310 9.49843E-09       8.1720
       0.386832 9.56216E-09       8.2268
       0.387355 9.62626E-09       8.2820
       0.387879 9.69106E-09       8.3377
       0.388404 9.75561E-09       8.3933
       0.388929 9.82276E-09       8.4510
       0.389455 9.89008E-09       8.5090
       0.389982 9.95852E-09       8.5678
       0.390510 1.00276E-08       8.6273
       0.391038 1.00971E-08       8.6871
       0.391567 1.01680E-08       8.7480
       0.392096 1.02408E-08       8.8107
       0.392627 1.03110E-08       8.8711
       0.393158 1.03850E-08       8.9348
       0.393690 1.04607E-08       8.9999
       0.394222 1.05357E-08       9.0644
       0.394755 1.06105E-08       9.1288
       0.395289 1.06872E-08       9.1948
       0.395824 1.07655E-08       9.2621
       0.396359 1.08442E-08       9.3298
       0.396895 1.09236E-08       9.3981
       0.397432 1.10056E-08       9.4687
       0.397970 1.10882E-08       9.5398
       0.398508 1.11705E-08       9.6105
       0.399047 1.12548E-08       9.6831
       0.399587 1.13404E-08       9.7568
       0.400127 1.14268E-08       9.8311
       0.400668 1.15145E-08       9.9065
       0.401210 1.16030E-08       9.9827
       0.401753 1.16921E-08      10.0593
       0.402296 1.17812E-08      10.1360
       0.402841 1.18734E-08      10.2153
       0.403385 1.19670E-08      10.2958
       0.403931 1.20595E-08      10.3754
       0.404477 1.21544E-08      10.4571
       0.405024 1.22499E-08      10.5392
       0.405572 1.23473E-08      10.6230
       0.406121 1.24458E-08      10.7078
       0.406670 1.25463E-08      10.7942
       0.407220 1.26466E-08      10.8806
       0.407771 1.27473E-08      10.9672
       0.408323 1.28490E-08      11.0547
       0.408875 1.29384E-08      11.1316
       0.409428 1.30576E-08      11.2341
       0.409982 1.31634E-08      11.3252
       0.410536 1.32625E-08      11.4104
       0.411091 1.33717E-08      11.5043
       0.411647 1.34855E-08      11.6023
       0.412204 1.35917E-08      11.6937
       0.412762 1.37022E-08      11.7887
       0.413320 1.38074E-08      11.8792
       0.413879 1.39212E-08      11.9772
       0.414439 1.40279E-08      12.0689
       0.414999 1.41048E-08      12.1351
       0.415561 1.42324E-08      12.2449
       0.416123 1.43431E-08      12.3401
       0.416686 1.44388E-08      12.4225
       0.417249 1.45245E-08      12.4962
       0.417814 1.45834E-08      12.5469
       0.418379 1.46458E-08      12.6005
       0.418945 1.46648E-08      12.6169
       0.419511 1.45945E-08      12.5564
       0.420079 1.43376E-08      12.3354
       0.420647 1.34536E-08      11.5749
       0.421216 1.14296E-08       9.8335
       0.421786 1.18594E-08      10.2032
       0.422356 1.37517E-08      11.8314
       0.422927 1.42771E-08      12.2834
       0.423499 1.23346E-08      10.6121
       0.424072 1.16765E-08      10.0459
       0.424646 1.17792E-08      10.1342
       0.425220 1.25968E-08      10.8377
       0.425795 1.51073E-08      12.9976
       0.426371 1.53398E-08      13.1977
       0.426948 1.21455E-08      10.4494
       0.427525 1.01233E-08       8.7097
       0.428104 1.39842E-08      12.0313
       0.428683 1.34219E-08      11.5476
       0.429263 1.12471E-08       9.6765
       0.429843 1.69276E-08      14.5637
       0.430425 1.72337E-08      14.8271
       0.431007 1.70588E-08      14.6766
       0.431590 1.52771E-08      13.1437
       0.432173 1.23602E-08      10.6342
       0.432758 1.49349E-08      12.8493
       0.433343 1.73495E-08      14.9267
       0.433929 1.65101E-08      14.2045
       0.434516 1.04549E-08       8.9949
       0.435104 1.87975E-08      16.1725
       0.435693 1.93533E-08      16.6507
       0.436282 1.96002E-08      16.8631
       0.436872 1.97339E-08      16.9781
       0.437463 1.97014E-08      16.9501
       0.438055 1.93359E-08      16.6357
       0.438647 1.78846E-08      15.3871
       0.439240 5.07197E-09       4.3637
       0.439834 1.73901E-08      14.9616
       0.440429 2.02436E-08      17.4167
       0.441025 2.09340E-08      18.0106
       0.441622 2.05651E-08      17.6932
       0.442219 1.19131E-08      10.2494
       0.442817 1.86784E-08      16.0701
       0.443416 2.22659E-08      19.1566
       0.444016 2.26577E-08      19.4936
       0.444616 2.29359E-08      19.7330
       0.445218 2.31755E-08      19.9392
       0.445820 2.33945E-08      20.1275
       0.446423 2.35754E-08      20.2832
       0.447027 2.37102E-08      20.3991
       0.447631 2.37494E-08      20.4329
       0.448237 2.35377E-08      20.2508
       0.448843 2.24074E-08      19.2783
       0.449450 1.05458E-08       9.0731
       0.450058 1.22881E-08      10.5721
       0.450667 2.40274E-08      20.6720
       0.451276 2.51176E-08      21.6100
       0.451887 2.56842E-08      22.0975
       0.452498 2.60692E-08      22.4287
       0.453110 2.62944E-08      22.6225
       0.453723 2.40469E-08      20.6889
       0.454337 2.30517E-08      19.8326
       0.454951 2.61089E-08      22.4628
       0.455566 2.74947E-08      23.6551
       0.456183 2.79270E-08      24.0271
       0.456800 2.82587E-08      24.3124
       0.457417 2.85680E-08      24.5786
       0.458036 2.88698E-08      24.8383
       0.458656 2.91596E-08      25.0876
       0.459276 2.94578E-08      25.3442
       0.459897 2.97499E-08      25.5954
       0.460519 3.00382E-08      25.8434
       0.461142 3.03344E-08      26.0983
       0.461766 3.06194E-08      26.3435
       0.462390 3.08944E-08      26.5801
       0.463016 3.11681E-08      26.8156
       0.463642 3.14159E-08      27.0288
       0.464269 3.16226E-08      27.2066
       0.464897 3.17393E-08      27.3070
       0.465526 3.15549E-08      27.1484
       0.466156 2.97931E-08      25.6326
       0.466786 3.10626E-09       2.6725
       0.467418 2.84975E-08      24.5179
       0.468050 3.29748E-08      28.3700
       0.468683 3.37138E-08      29.0058
       0.469317 3.42481E-08      29.4655
       0.469952 3.46716E-08      29.8299
       0.470587 3.50611E-08      30.1650
       0.471224 3.54219E-08      30.4754
       0.471861 3.57220E-08      30.7335
       0.472499 3.60724E-08      31.0350
       0.473138 3.64080E-08      31.3238
       0.473778 3.66652E-08      31.5451
       0.474419 3.57584E-08      30.7649
       0.475061 3.48956E-08      30.0226
       0.475703 3.63936E-08      31.3113
       0.476347 3.80590E-08      32.7442
       0.476991 3.84940E-08      33.1184
       0.477636 3.88690E-08      33.4411
       0.478282 3.92342E-08      33.7553
       0.478929 3.95897E-08      34.0611
       0.479577 3.99415E-08      34.3638
       0.480226 4.03000E-08      34.6722
       0.480875 4.06399E-08      34.9647
       0.481526 4.09536E-08      35.2346
       0.482177 4.12919E-08      35.5256
       0.482829 4.16527E-08      35.8361
       0.483482 4.19837E-08      36.1209
       0.484136 4.23301E-08      36.4189
       0.484791 4.26572E-08      36.7003
       0.485447 4.30719E-08      37.0570
       0.486103 4.34045E-08      37.3432
       0.486761 4.37384E-08      37.6305
       0.487419 4.40729E-08      37.9182
       0.488078 4.44215E-08      38.2182
       0.488739 4.47781E-08      38.5250
       0.489400 4.51011E-08      38.8029
       0.490062 4.54235E-08      39.0803
       0.490724 4.57633E-08      39.3726
       0.491388 4.60357E-08      39.6070
       0.492053 4.63459E-08      39.8738
       0.492718 4.67550E-08      40.2259
       0.493385 4.70337E-08      40.4656
       0.494052 4.72888E-08      40.6850
       0.494720 4.75931E-08      40.9469
       0.495389 4.78862E-08      41.1991
       0.496060 4.81220E-08      41.4019
       0.496730 4.81498E-08      41.4259
       0.497402 4.69248E-08      40.3719
       0.498075 3.84642E-08      33.0928
       0.498749 4.64514E-08      39.9646
       0.499423 4.91837E-08      42.3153
       0.500099 4.98236E-08      42.8659
       0.500775 5.01903E-08      43.1814
       0.501453 5.04841E-08      43.4341
       0.502131 5.07249E-08      43.6413
       0.502810 5.09263E-08      43.8147
       0.503490 5.11427E-08      44.0008
       0.504171 5.14023E-08      44.2242
       0.504853 5.16937E-08      44.4749
       0.505536 5.19131E-08      44.6636
       0.506220 5.21182E-08      44.8400
       0.506904 5.22779E-08      44.9775
       0.507590 5.24618E-08      45.1357
       0.508277 5.26436E-08      45.2921
       0.508964 5.27745E-08      45.4047
       0.509652 5.28688E-08      45.4859
       0.510342 5.29925E-08      45.5923
       0.511032 5.31107E-08      45.6940
       0.511723 5.32050E-08      45.7751
       0.512415 5.33060E-08      45.8620
       0.513109 5.33609E-08      45.9092
       0.513803 5.33940E-08      45.9377
       0.514497 5.20753E-08      44.8032
       0.515193 5.09479E-08      43.8332
       0.515890 5.32328E-08      45.7991
       0.516588 5.34760E-08      46.0082
       0.517287 5.34503E-08      45.9862
       0.517986 5.34177E-08      45.9581
       0.518687 5.33781E-08      45.9241
       0.519389 5.32638E-08      45.8257
       0.520091 5.31874E-08      45.7600
       0.520795 5.30289E-08      45.6236
       0.521499 5.28990E-08      45.5119
       0.522204 5.27137E-08      45.3525
       0.522911 5.25244E-08      45.1896
       0.523618 5.22393E-08      44.9443
       0.524326 5.20422E-08      44.7747
       0.525035 5.17783E-08      44.5477
       0.525745 5.14728E-08      44.2848
       0.526457 5.11533E-08      44.0099
       0.527169 5.08096E-08      43.7142
       0.527882 5.04360E-08      43.3927
       0.528596 5.00680E-08      43.0762
       0.529311 4.96106E-08      42.6827
       0.530027 4.91595E-08      42.2946
       0.530743 4.86606E-08      41.8653
       0.531461 4.81620E-08      41.4364
       0.532180 4.76151E-08      40.9658
       0.532900 4.70432E-08      40.4738
       0.533621 4.64402E-08      39.9550
       0.534343 4.58576E-08      39.4538
       0.535065 4.51994E-08      38.8874
       0.535789 4.44983E-08      38.2843
       0.536514 4.37644E-08      37.6529
       0.537239 4.30144E-08      37.0076
       0.537966 4.22757E-08      36.3721
       0.538694 4.14597E-08      35.6700
       0.539422 4.06071E-08      34.9364
       0.540152 3.97512E-08      34.2001
       0.540882 3.88854E-08      33.4552
       0.541614 3.79633E-08      32.6619
       0.542347 3.70372E-08      31.8651
       0.543080 3.61134E-08      31.0703
       0.543815 3.50859E-08      30.1863
       0.544550 3.40936E-08      29.3325
       0.545287 3.31699E-08      28.5378
       0.546024 3.21244E-08      27.6384
       0.546763 3.10589E-08      26.7217
       0.547502 3.00126E-08      25.8214
       0.548243 2.89063E-08      24.8696
       0.548984 2.78255E-08      23.9398
       0.549727 2.67594E-08      23.0226
       0.550471 2.56221E-08      22.0440
       0.551215 2.45195E-08      21.0954
       0.551961 2.34109E-08      20.1417
       0.552707 2.22804E-08      19.1690
       0.553455 2.11836E-08      18.2253
       0.554203 2.00661E-08      17.2640
       0.554953 1.89621E-08      16.3142
       0.555704 1.79139E-08      15.4123
       0.556455 1.68449E-08      14.4926
       0.557208 1.57572E-08      13.5568
       0.557962 1.47115E-08      12.6571
       0.558716 1.37109E-08      11.7963
       0.559472 1.27515E-08      10.9708
       0.560229 1.17764E-08      10.1318
       0.560986 1.08408E-08       9.3270
       0.561745 9.97152E-09       8.5790
       0.562505 9.09315E-09       7.8233
       0.563266 8.30234E-09       7.1429
       0.564028 7.51085E-09       6.4620
       0.564791 6.79194E-09       5.8435
       0.565554 6.08612E-09       5.2362
       0.566319 5.44687E-09       4.6862
       0.567085 4.83824E-09       4.1626
       0.567852 4.26993E-09       3.6737
       0.568621 2.94502E-09       2.5338
       0.569390 2.99784E-09       2.5792
       0.570160 2.88157E-09       2.4792
       0.570931 2.50324E-09       2.1537
       0.571703 2.16221E-09       1.8603
       0.572476 1.85753E-09       1.5981
       0.573251 1.58450E-09       1.3632
       0.574026 1.33645E-09       1.1498
       0.574803 1.12206E-09       0.9654
       0.575580 9.38429E-10       0.8074
       0.576358 7.78437E-10       0.6697
       0.577138 6.39538E-10       0.5502
       0.577919 5.22123E-10       0.4492
       0.578700 4.22259E-10       0.3633
       0.579483 3.36104E-10       0.2892
       0.580267 2.63421E-10       0.2266
       0.581052 2.03205E-10       0.1748
       0.581838 1.54856E-10       0.1332
       0.582625 1.16171E-10       0.0999
       0.583413 8.46042E-11       0.0728
       0.584202 6.01165E-11       0.0517
       0.584992 4.16706E-11       0.0359
       0.585783 2.78756E-11       0.0240
       0.586575 1.72396E-11       0.0148
       0.587369 9.24723E-12       0.0080
       0.588163 2.88401E-12       0.0025
       0.588959 4.39256E-13       0.0004
       0.589755 3.01435E-13       0.0003
       0.590553 6.10062E-12       0.0052
       0.591352 1.44482E-11       0.0124
       0.592152 2.55604E-11       0.0220
       0.592953 4.08706E-11       0.0352
       0.593755 6.16271E-11       0.0530
       0.594558 9.08413E-11       0.0782
       0.595362 1.28666E-10       0.1107
       0.596167 1.77608E-10       0.1528
       0.596974 2.39661E-10       0.2062
       0.597781 3.18119E-10       0.2737
       0.598590 4.20557E-10       0.3618
       0.599399 5.42058E-10       0.4664
       0.600210 6.89099E-10       0.5929
       0.601022 8.65040E-10       0.7442
       0.601835 1.07565E-09       0.9254
       0.602649 1.32389E-09       1.1390
       0.603464 1.60265E-09       1.3788
       0.604280 1.92834E-09       1.6591
       0.605097 2.32289E-09       1.9985
       0.605916 2.77584E-09       2.3882
       0.606735 3.28289E-09       2.8244
       0.607556 3.86950E-09       3.3291
       0.608378 4.51990E-09       3.8887
       0.609201 5.26007E-09       4.5255
       0.610025 6.10469E-09       5.2522
       0.610850 7.02518E-09       6.0441
       0.611676 8.05744E-09       6.9322
       0.612503 9.18762E-09       7.9046
       0.613332 1.04324E-08       8.9755
       0.614161 1.18045E-08      10.1561
       0.614992 1.05412E-08       9.0692
       0.615824 1.13926E-08       9.8017
       0.616657 1.66949E-08      14.3635
       0.617491 1.86323E-08      16.0303
       0.618326 2.06565E-08      17.7719
       0.619162 2.28454E-08      19.6551
       0.620000 2.52030E-08      21.6835
       0.620838 2.76738E-08      23.8093
       0.621678 3.03358E-08      26.0995
       0.622519 3.32089E-08      28.5714
       0.623361 3.61656E-08      31.1152
       0.624204 3.92258E-08      33.7481
       0.625048 4.24366E-08      36.5105
       0.625894 4.58221E-08      39.4232
       0.626740 4.94715E-08      42.5630
       0.627588 5.32573E-08      45.8201
       0.628437 5.72123E-08      49.2228
       0.629287 6.13331E-08      52.7681
       0.630138 6.55418E-08      56.3891
       0.630991 6.95616E-08      59.8475
       0.631844 7.44121E-08      64.0207
       0.632699 7.92788E-08      68.2078
       0.633554 8.40687E-08      72.3288
       0.634411 8.89428E-08      76.5223
       0.635269 9.42738E-08      81.1088
       0.636129 9.96000E-08      85.6912
       0.636989 1.05120E-07      90.4407
       0.637851 1.10265E-07      94.8671
       0.638713 1.16351E-07     100.1030
       0.639577 1.22330E-07     105.2468
       0.640442 1.28325E-07     110.4049
       0.641309 1.34465E-07     115.6870
       0.642176 1.40944E-07     121.2617
       0.643045 1.46796E-07     126.2961
       0.643914 1.52639E-07     131.3234
       0.644785 1.58535E-07     136.3959
       0.645657 1.65553E-07     142.4344
       0.646531 1.72142E-07     148.1034
       0.647405 1.76761E-07     152.0766
       0.648281 1.84080E-07     158.3737
       0.649158 1.93251E-07     166.2641
       0.650036 2.02515E-07     174.2342
       0.650915 2.10657E-07     181.2394
       0.651795 2.17981E-07     187.5407
       0.652677 2.25774E-07     194.2455
       0.653560 2.33557E-07     200.9415
       0.654444 2.40917E-07     207.2742
       0.655329 2.49166E-07     214.3707
       0.656215 2.57766E-07     221.7702
       0.657103 2.63181E-07     226.4288
       0.657992 2.69420E-07     231.7968
       0.658882 2.82123E-07     242.7259
       0.659773 2.90998E-07     250.3614
       0.660665 2.97144E-07     255.6486
       0.661559 3.10012E-07     266.7202
       0.662454 3.19785E-07     275.1283
       0.663350 3.27736E-07     281.9686
       0.664247 3.37766E-07     290.5978
       0.665145 3.48007E-07     299.4092
       0.666045 3.59531E-07     309.3239
       0.666946 3.68408E-07     316.9613
       0.667848 3.76642E-07     324.0452
