# Model: CoolTLusty
# Metallicity: 7.0 x solar
# col 0 - wavelength (microns)
# col 1 - geometric albedo
4.299999999999999933e-01 4.567134751773049284e-01
4.309999999999999942e-01 4.570680851063829708e-01
4.319999999999999951e-01 4.574215547703179841e-01
4.329999999999999960e-01 4.577744268077601486e-01
4.339999999999999969e-01 4.581324378609088477e-01
4.349999999999999978e-01 4.585207518796992621e-01
4.359999999999999987e-01 4.588710532899674677e-01
4.369999999999999996e-01 4.592206930939915499e-01
4.380000000000000004e-01 4.596267826086956609e-01
4.390000000000000013e-01 4.599746086956522095e-01
4.400000000000000022e-01 4.601951473136915438e-01
4.410000000000000031e-01 4.603399406821551687e-01
4.420000000000000040e-01 4.608538177339902009e-01
4.430000000000000049e-01 4.613900985221675022e-01
4.440000000000000058e-01 4.619269513991163256e-01
4.450000000000000067e-01 4.623598825831702341e-01
4.460000000000000075e-01 4.627866927592955149e-01
4.470000000000000084e-01 4.631964102564102848e-01
4.480000000000000093e-01 4.636078364565587862e-01
4.490000000000000102e-01 4.640122241086587218e-01
4.500000000000000111e-01 4.644276740237691659e-01
4.510000000000000120e-01 4.648097171863669330e-01
4.520000000000000129e-01 4.652286677908937795e-01
4.530000000000000138e-01 4.656014936159961204e-01
4.540000000000000147e-01 4.660021848739496209e-01
4.550000000000000155e-01 4.663810480976310346e-01
4.560000000000000164e-01 4.667655419956927565e-01
4.570000000000000173e-01 4.671503696637253067e-01
4.580000000000000182e-01 4.674721428571428916e-01
4.590000000000000191e-01 4.677100309008794810e-01
4.600000000000000200e-01 4.681382136934376104e-01
4.610000000000000209e-01 4.686989829706716959e-01
4.620000000000000218e-01 4.691952538370720016e-01
4.630000000000000226e-01 4.696690986114380184e-01
4.640000000000000235e-01 4.701273026315790360e-01
4.650000000000000244e-01 4.705339901477832987e-01
4.660000000000000253e-01 4.709266541968669673e-01
4.670000000000000262e-01 4.713571195525518287e-01
4.680000000000000271e-01 4.718060358890701633e-01
4.690000000000000280e-01 4.722630894308942895e-01
4.700000000000000289e-01 4.726824390243902774e-01
4.710000000000000298e-01 4.730689320388349328e-01
4.720000000000000306e-01 4.734894590846047691e-01
4.730000000000000315e-01 4.738935023041474515e-01
4.740000000000000324e-01 4.742991731740928696e-01
4.750000000000000333e-01 4.746476725521669437e-01
4.760000000000000342e-01 4.750670947030497526e-01
4.770000000000000351e-01 4.754301942857143137e-01
4.780000000000000360e-01 4.757499315381104599e-01
4.790000000000000369e-01 4.760308007279345222e-01
4.800000000000000377e-01 4.762580513286395201e-01
4.810000000000000386e-01 4.764850340136054796e-01
4.820000000000000395e-01 4.766646473779385107e-01
4.830000000000000404e-01 4.769699842022117053e-01
4.840000000000000413e-01 4.767916854438936092e-01
4.850000000000000422e-01 4.755753205849268528e-01
4.860000000000000431e-01 4.757287508409958066e-01
4.870000000000000440e-01 4.779181757209927106e-01
4.880000000000000449e-01 4.794583501006037252e-01
4.890000000000000457e-01 4.803937597503900592e-01
4.900000000000000466e-01 4.809505117935025109e-01
4.910000000000000475e-01 4.813318322981366970e-01
4.920000000000000484e-01 4.817976708074534486e-01
4.930000000000000493e-01 4.821624862000441492e-01
4.940000000000000502e-01 4.825856922057850107e-01
4.950000000000000511e-01 4.829893902707462217e-01
4.960000000000000520e-01 4.833511648351649370e-01
4.970000000000000528e-01 4.837559139784946560e-01
4.980000000000000537e-01 4.841627652592430109e-01
4.990000000000000546e-01 4.844958497160332112e-01
5.000000000000000000e-01 4.848239040348964468e-01
5.010000000000001119e-01 4.851649489019352335e-01
5.020000000000000018e-01 4.855121580547112070e-01
5.030000000000001137e-01 4.857746152178625820e-01
5.040000000000000036e-01 4.860910741301058824e-01
5.050000000000001155e-01 4.863071968878323048e-01
5.060000000000000053e-01 4.865190691661279709e-01
5.070000000000001172e-01 4.866471385542169292e-01
5.080000000000000071e-01 4.866664092664093055e-01
5.090000000000001190e-01 4.866803384022275192e-01
5.100000000000000089e-01 4.869232463644140307e-01
5.110000000000001208e-01 4.875786780383796759e-01
5.120000000000000107e-01 4.886747498403236634e-01
5.130000000000001226e-01 4.896108843537416155e-01
5.140000000000000124e-01 4.903535608308605687e-01
5.150000000000001243e-01 4.908423492063492821e-01
5.160000000000000142e-01 4.912327073222198526e-01
5.170000000000001261e-01 4.915626925511711875e-01
5.180000000000000160e-01 4.918922268907563455e-01
5.190000000000001279e-01 4.920671008403361690e-01
5.200000000000000178e-01 4.921978812670442793e-01
5.210000000000001297e-01 4.924074252248483718e-01
5.220000000000000195e-01 4.926186716791979836e-01
5.230000000000001315e-01 4.930636401499375876e-01
5.240000000000000213e-01 4.935617659308621508e-01
5.250000000000001332e-01 4.940980897009967232e-01
5.260000000000000231e-01 4.946069666182874580e-01
5.270000000000001350e-01 4.950721728344015249e-01
5.280000000000000249e-01 4.953298720066061089e-01
5.290000000000001368e-01 4.957828736105394096e-01
5.300000000000000266e-01 4.959975916014821018e-01
5.310000000000001386e-01 4.962302545155993783e-01
5.320000000000000284e-01 4.962217872514859685e-01
5.330000000000001403e-01 4.961194023741301584e-01
5.340000000000000302e-01 4.960172448979591753e-01
5.350000000000001421e-01 4.957468514367229795e-01
5.360000000000000320e-01 4.949305657305657080e-01
5.370000000000001439e-01 4.935821834415581866e-01
5.380000000000000338e-01 4.918318089842169671e-01
5.390000000000001457e-01 4.888022662889515702e-01
5.400000000000000355e-01 4.868609362389021977e-01
5.410000000000001474e-01 4.822375579286710123e-01
5.420000000000000373e-01 4.756943460764586629e-01
5.430000000000001492e-01 4.758826645264840893e-01
5.440000000000000391e-01 4.631557603686620173e-01
5.450000000000001510e-01 4.822197278911649065e-01
5.460000000000000409e-01 4.879606943335991764e-01
5.470000000000001528e-01 4.917253038453892611e-01
5.480000000000000426e-01 4.941072521359030079e-01
5.490000000000001545e-01 5.020255910987486692e-01
5.500000000000000444e-01 5.032999405587478270e-01
5.510000000000001563e-01 5.038221210922042559e-01
5.520000000000000462e-01 5.042026440410418697e-01
5.530000000000001581e-01 5.044608669950739754e-01
5.540000000000000480e-01 5.045512003148366897e-01
5.550000000000001599e-01 5.042485753586164465e-01
5.560000000000000497e-01 5.014216343327454473e-01
5.570000000000001616e-01 5.014706066536205320e-01
5.580000000000000515e-01 4.992316787179987836e-01
5.590000000000001634e-01 5.056011124121780886e-01
5.600000000000000533e-01 5.057207862981705215e-01
5.610000000000001652e-01 5.064835762876580549e-01
5.620000000000000551e-01 5.067703624733475021e-01
5.630000000000001670e-01 5.069732481610530472e-01
5.640000000000000568e-01 5.070990347490347272e-01
5.650000000000001688e-01 5.070557915057913867e-01
5.660000000000000586e-01 5.068716211012705974e-01
5.670000000000001705e-01 5.066241167434715198e-01
5.680000000000000604e-01 5.062203917050690505e-01
5.690000000000001723e-01 5.059052540747841498e-01
5.700000000000000622e-01 5.055189137502390517e-01
5.710000000000001741e-01 5.049668640183345714e-01
5.720000000000000639e-01 5.045857714285713058e-01
5.730000000000001759e-01 5.036158074947686414e-01
5.740000000000000657e-01 5.016097264437688885e-01
5.750000000000001776e-01 5.001876089427811367e-01
5.760000000000000675e-01 5.000114474929044928e-01
5.770000000000001794e-01 5.009090136054421549e-01
5.780000000000000693e-01 5.011080203812040557e-01
5.790000000000001812e-01 4.974269924812044219e-01
5.800000000000000711e-01 5.056962030075189407e-01
5.810000000000001830e-01 5.083221513046747297e-01
5.820000000000000728e-01 5.104552705485865260e-01
5.830000000000001847e-01 5.113813762154078013e-01
5.840000000000000746e-01 5.122387541961954671e-01
5.850000000000001865e-01 5.124550540842969237e-01
5.860000000000000764e-01 5.135343749999999874e-01
5.870000000000001883e-01 5.138993683819431668e-01
5.880000000000000782e-01 5.141094867518992695e-01
5.890000000000001901e-01 5.138481495188746973e-01
5.900000000000000799e-01 5.131559416004435326e-01
5.910000000000001918e-01 5.125816352897746286e-01
5.920000000000000817e-01 5.091564985272462041e-01
5.930000000000001936e-01 5.090046332046319622e-01
5.940000000000000835e-01 5.055807565185456154e-01
5.950000000000001954e-01 5.045380952380951189e-01
5.960000000000000853e-01 5.059820241139936225e-01
5.970000000000001972e-01 5.067511143587870581e-01
5.980000000000000870e-01 5.073855500821018438e-01
5.990000000000001990e-01 5.088996906278439036e-01
6.000000000000000888e-01 5.105971682701035963e-01
6.010000000000002007e-01 5.120982029406428993e-01
6.020000000000000906e-01 5.136131088176716375e-01
6.030000000000002025e-01 5.147132007233274908e-01
6.040000000000000924e-01 5.151984126984127110e-01
6.050000000000002043e-01 5.150890109890109425e-01
6.060000000000000941e-01 5.141934065934065101e-01
6.070000000000002061e-01 5.124237078248380373e-01
6.080000000000000959e-01 5.099868255959847385e-01
6.090000000000002078e-01 5.081101324740420200e-01
6.100000000000000977e-01 5.068270695512245849e-01
6.110000000000002096e-01 5.032147672552149675e-01
6.120000000000000995e-01 4.948772354827205566e-01
6.130000000000002114e-01 4.796327699697517377e-01
6.140000000000001013e-01 4.598310234541556629e-01
6.150000000000002132e-01 4.522503544842240708e-01
6.160000000000001030e-01 4.454830943529813347e-01
6.170000000000002149e-01 4.349692389192979514e-01
6.180000000000001048e-01 4.149967684972596382e-01
6.190000000000002167e-01 4.014180858550285280e-01
6.200000000000001066e-01 3.942106263194941618e-01
6.210000000000002185e-01 4.100032292032340098e-01
6.220000000000001084e-01 4.284068185801940820e-01
6.230000000000002203e-01 4.479639705882408340e-01
6.240000000000001101e-01 4.667518686692301855e-01
6.250000000000002220e-01 4.862413396127709952e-01
6.260000000000001119e-01 4.985735191637645780e-01
6.270000000000002238e-01 5.058384374456249555e-01
6.280000000000001137e-01 5.103501128276344279e-01
6.290000000000002256e-01 5.141447792207790579e-01
6.300000000000001155e-01 5.028975411255383055e-01
6.310000000000002274e-01 4.894027120400748498e-01
6.320000000000001172e-01 5.097633540372716876e-01
6.330000000000002292e-01 4.916471135619548960e-01
6.340000000000001190e-01 5.039290699673361074e-01
6.350000000000002309e-01 5.082336134453826482e-01
6.360000000000001208e-01 5.161664894529240932e-01
6.370000000000002327e-01 5.191501027749239050e-01
6.380000000000001226e-01 5.190525857654888497e-01
6.390000000000002345e-01 5.180303954994883719e-01
6.400000000000001243e-01 5.170926184793726010e-01
6.410000000000002363e-01 5.155835374149656536e-01
6.420000000000001261e-01 5.139727874978764488e-01
6.430000000000002380e-01 5.134855109303509968e-01
6.440000000000001279e-01 5.141468517264726756e-01
6.450000000000002398e-01 5.145142857142857018e-01
6.460000000000001297e-01 5.143280823073029806e-01
6.470000000000002416e-01 5.135032383201211248e-01
6.480000000000001315e-01 5.114517647058820504e-01
6.490000000000002434e-01 5.093550756302518412e-01
6.500000000000001332e-01 5.085135311871229469e-01
6.510000000000002451e-01 5.086396955503511563e-01
6.520000000000001350e-01 5.092019404483106859e-01
6.530000000000002469e-01 5.083700250626561612e-01
6.540000000000001368e-01 5.052434565434561486e-01
6.550000000000002487e-01 5.005573091634775151e-01
6.560000000000001386e-01 4.966417441860464521e-01
6.570000000000002505e-01 4.952985564957683717e-01
6.580000000000001403e-01 4.938357308584685468e-01
6.590000000000002522e-01 4.921605197814926114e-01
6.600000000000001421e-01 4.886744968657203980e-01
6.610000000000002540e-01 4.841365555922131914e-01
6.620000000000001439e-01 4.826045918367347642e-01
6.630000000000002558e-01 4.826222094361333204e-01
6.640000000000001457e-01 4.819013793103447130e-01
6.650000000000002576e-01 4.798683450877473944e-01
6.660000000000001474e-01 4.738970019659227706e-01
6.670000000000002593e-01 4.713570284406674027e-01
6.680000000000001492e-01 4.737419439008483946e-01
6.690000000000002611e-01 4.774843134060930971e-01
6.700000000000001510e-01 4.804628050764728764e-01
6.710000000000002629e-01 4.869956444011082075e-01
6.720000000000001528e-01 4.934582142857152354e-01
6.730000000000002647e-01 5.060744897959223998e-01
6.740000000000001545e-01 5.109064067303032974e-01
6.750000000000002665e-01 5.140167231638419487e-01
6.760000000000001563e-01 5.151894991141895419e-01
6.770000000000002682e-01 5.180583668867778657e-01
6.780000000000001581e-01 5.194025740025740578e-01
6.790000000000002700e-01 5.170464847512026285e-01
6.800000000000001599e-01 5.116945165945157026e-01
6.810000000000002718e-01 5.097776905829592975e-01
6.820000000000001616e-01 5.042424736337479674e-01
6.830000000000002736e-01 5.008824102154835201e-01
6.840000000000001634e-01 5.031219780219782223e-01
6.850000000000002753e-01 5.041383709831372961e-01
6.860000000000001652e-01 5.054931034482761376e-01
6.870000000000002771e-01 5.090859841269854691e-01
6.880000000000001670e-01 5.118646741715556781e-01
6.890000000000002789e-01 5.133808099984183970e-01
6.900000000000001688e-01 5.152262168141594767e-01
6.910000000000002807e-01 5.153756859035001359e-01
6.920000000000001705e-01 5.137929910222076568e-01
6.930000000000002824e-01 5.096328665827558613e-01
6.940000000000001723e-01 5.068578492935631452e-01
6.950000000000002842e-01 5.025488474204156120e-01
6.960000000000001741e-01 4.958422932330815991e-01
6.970000000000002860e-01 4.867412455014836214e-01
6.980000000000001759e-01 4.758253395784521333e-01
6.990000000000002878e-01 4.639151444184193562e-01
7.000000000000001776e-01 4.507420003115730767e-01
7.010000000000002895e-01 4.376615575936543268e-01
7.020000000000001794e-01 4.267762525205525681e-01
7.030000000000002913e-01 4.296789277967170695e-01
7.040000000000001812e-01 4.339404710257202535e-01
7.050000000000002931e-01 4.397823629343688978e-01
7.060000000000001830e-01 4.537057606177610780e-01
7.070000000000002949e-01 4.587974082073454918e-01
7.080000000000001847e-01 4.686766625615785831e-01
7.090000000000002967e-01 4.739921267107493619e-01
7.100000000000001865e-01 4.796867127496172722e-01
7.110000000000002984e-01 4.871063986496874665e-01
7.120000000000001883e-01 4.878827132139028633e-01
7.130000000000003002e-01 4.883866625879475509e-01
7.140000000000001901e-01 4.875182539682518246e-01
7.150000000000003020e-01 4.746751446847327083e-01
7.160000000000001918e-01 4.454893390191835834e-01
7.170000000000003038e-01 4.055449848024222370e-01
7.180000000000001936e-01 3.731284804367545060e-01
7.190000000000003055e-01 3.462714589020245426e-01
7.200000000000001954e-01 3.188932203389763242e-01
7.210000000000003073e-01 2.927534845049084566e-01
7.220000000000001972e-01 2.720918453639336043e-01
7.230000000000003091e-01 2.703229144667420036e-01
7.240000000000001990e-01 2.555343971097333022e-01
7.250000000000003109e-01 2.203465301821358469e-01
7.260000000000002007e-01 2.132713685474200704e-01
7.270000000000003126e-01 2.076166566626622689e-01
7.280000000000002025e-01 2.065634321653191108e-01
7.290000000000003144e-01 2.261539682539747687e-01
7.300000000000002043e-01 2.481899238692382714e-01
7.310000000000003162e-01 2.649153455739713392e-01
7.320000000000002061e-01 2.818125892857148984e-01
7.330000000000003180e-01 2.856695852534610891e-01
7.340000000000002078e-01 3.007076843198390192e-01
7.350000000000003197e-01 3.144626852400594363e-01
7.360000000000002096e-01 2.856940723177270325e-01
7.370000000000003215e-01 3.168529768060627250e-01
7.380000000000002114e-01 3.954794356625842000e-01
7.390000000000003233e-01 4.242716939407459864e-01
7.400000000000002132e-01 4.558098379970558223e-01
7.410000000000003251e-01 4.682798881859726592e-01
7.420000000000002149e-01 4.866886800763489118e-01
7.430000000000003268e-01 4.965511965937488559e-01
7.440000000000002167e-01 5.049525274725285007e-01
7.450000000000003286e-01 5.075677584442170875e-01
7.460000000000002185e-01 5.077479017400204908e-01
7.470000000000003304e-01 5.080937545600469063e-01
7.480000000000002203e-01 5.086466724916266502e-01
7.490000000000003322e-01 5.084913499344689836e-01
7.500000000000002220e-01 5.081491498328731815e-01
7.510000000000003340e-01 5.083733449477352284e-01
7.520000000000002238e-01 5.083230166787526816e-01
7.530000000000003357e-01 5.078079027355620889e-01
7.540000000000002256e-01 5.073152255639096220e-01
7.550000000000003375e-01 5.065272136357067412e-01
7.560000000000002274e-01 5.021632261784616524e-01
7.570000000000003393e-01 5.000531826036868077e-01
7.580000000000002292e-01 4.965134656883888331e-01
7.590000000000003411e-01 4.911436619718291263e-01
7.600000000000002309e-01 4.811809523809496003e-01
7.610000000000003428e-01 4.770474279982805377e-01
7.620000000000002327e-01 4.694502862868567550e-01
7.630000000000003446e-01 4.630170714285699596e-01
7.640000000000002345e-01 4.584201227344072982e-01
7.650000000000003464e-01 4.570201881950385903e-01
7.660000000000002363e-01 4.544258964143415014e-01
7.670000000000003482e-01 4.535022601279319887e-01
7.680000000000002380e-01 4.547937375745531585e-01
7.690000000000003499e-01 4.556541950113380812e-01
7.700000000000002398e-01 4.544480300453508925e-01
7.710000000000003517e-01 4.513381093683749845e-01
7.720000000000002416e-01 4.443365550374431261e-01
7.730000000000003535e-01 4.324685657876132239e-01
7.740000000000002434e-01 4.265891236968157862e-01
7.750000000000003553e-01 4.243384983127097554e-01
7.760000000000002451e-01 4.171294844781543443e-01
7.770000000000003570e-01 4.094146646084737551e-01
7.780000000000002469e-01 4.006297069956506474e-01
7.790000000000003588e-01 3.886520638029893893e-01
7.800000000000002487e-01 3.699065557729875331e-01
7.810000000000003606e-01 3.508280970982094460e-01
7.820000000000002505e-01 3.424747874564452732e-01
7.830000000000003624e-01 3.345309384572495714e-01
7.840000000000002522e-01 3.322566977326508186e-01
7.850000000000003642e-01 3.429292378175769485e-01
7.860000000000002540e-01 3.442506997367325572e-01
7.870000000000003659e-01 3.459613135651960492e-01
7.880000000000002558e-01 3.530019637671156785e-01
7.890000000000003677e-01 3.589536059685003444e-01
7.900000000000002576e-01 3.596233590733577401e-01
7.910000000000003695e-01 3.531313128530064738e-01
7.920000000000002593e-01 3.422542279664487208e-01
7.930000000000003713e-01 3.322556029148869827e-01
7.940000000000002611e-01 3.220540963359392328e-01
7.950000000000003730e-01 3.160287768798784036e-01
7.960000000000002629e-01 3.131798520750574411e-01
7.970000000000003748e-01 3.079417624521055274e-01
7.980000000000002647e-01 3.044085440874906290e-01
7.990000000000003766e-01 3.065894119252295380e-01
8.000000000000002665e-01 3.179841330425337009e-01
8.010000000000003784e-01 3.256859866539583703e-01
8.020000000000002682e-01 3.244859997281490105e-01
8.030000000000003801e-01 3.281248506246631225e-01
8.040000000000002700e-01 3.349511870845223172e-01
8.050000000000003819e-01 3.338421530128614090e-01
8.060000000000002718e-01 3.395989989177536361e-01
8.070000000000003837e-01 3.523265460437520757e-01
8.080000000000002736e-01 3.554381222177241950e-01
8.090000000000003855e-01 3.578140835579569079e-01
8.100000000000002753e-01 3.719119182136163548e-01
8.110000000000003872e-01 3.836920843972621564e-01
8.120000000000002771e-01 3.929464788732429104e-01
8.130000000000003890e-01 4.042690297507398611e-01
8.140000000000002789e-01 4.110982996385086907e-01
8.150000000000003908e-01 4.206845896371705362e-01
8.160000000000002807e-01 4.277598824001088151e-01
8.170000000000003926e-01 4.348806675567449820e-01
8.180000000000002824e-01 4.346069829424302200e-01
8.190000000000003944e-01 4.417733058181374517e-01
8.200000000000002842e-01 4.484794626230396153e-01
8.210000000000003961e-01 4.518172596919817763e-01
8.220000000000002860e-01 4.465056638811475964e-01
8.230000000000003979e-01 4.460383026611992596e-01
8.240000000000002878e-01 4.537458201058205409e-01
8.250000000000003997e-01 4.505837452094567097e-01
8.260000000000002895e-01 4.423328452710746372e-01
