# Model: CoolTLusty
# Metallicity: 1.0 x solar
# col 0 - wavelength (microns)
# col 1 - geometric albedo
4.299999999999999933e-01 4.567134751773049284e-01
4.309999999999999942e-01 4.571521276595744698e-01
4.319999999999999951e-01 4.575215547703180285e-01
4.329999999999999960e-01 4.578744268077601376e-01
4.339999999999999969e-01 4.582267135325131524e-01
4.349999999999999978e-01 4.585778947368421288e-01
4.359999999999999987e-01 4.590281961471103234e-01
4.369999999999999996e-01 4.593778359511343501e-01
4.380000000000000004e-01 4.597267826086956499e-01
4.390000000000000013e-01 4.600746086956521985e-01
4.400000000000000022e-01 4.604220103986135237e-01
4.410000000000000031e-01 4.607685121107266135e-01
4.420000000000000040e-01 4.612141379310344957e-01
4.430000000000000049e-01 4.615589655172414041e-01
4.440000000000000058e-01 4.620030927835051537e-01
4.450000000000000067e-01 4.624465753424657488e-01
4.460000000000000075e-01 4.627890410958904188e-01
4.470000000000000084e-01 4.632309401709401864e-01
4.480000000000000093e-01 4.636718909710391689e-01
4.490000000000000102e-01 4.641122241086587663e-01
4.500000000000000111e-01 4.644517826825127482e-01
4.510000000000000120e-01 4.648903553299492675e-01
4.520000000000000129e-01 4.653286677908937685e-01
4.530000000000000138e-01 4.656659359190556402e-01
4.540000000000000147e-01 4.661021848739496098e-01
4.550000000000000155e-01 4.665381909547738903e-01
4.560000000000000164e-01 4.668731993299832239e-01
4.570000000000000173e-01 4.673075125208681069e-01
4.580000000000000182e-01 4.676615000000000077e-01
4.590000000000000191e-01 4.680740432612313096e-01
4.600000000000000200e-01 4.684592039800995478e-01
4.610000000000000209e-01 4.689374172185430401e-01
4.620000000000000218e-01 4.693523966942148573e-01
4.630000000000000226e-01 4.697472817133443446e-01
4.640000000000000235e-01 4.702273026315789695e-01
4.650000000000000244e-01 4.706339901477832877e-01
4.660000000000000253e-01 4.710256955810147583e-01
4.670000000000000262e-01 4.715110929853180699e-01
4.680000000000000271e-01 4.719060358890701523e-01
4.690000000000000280e-01 4.723630894308943340e-01
4.700000000000000289e-01 4.727824390243902664e-01
4.710000000000000298e-01 4.731689320388349218e-01
4.720000000000000306e-01 4.735543689320388383e-01
4.730000000000000315e-01 4.740390322580645410e-01
4.740000000000000324e-01 4.744225080385852111e-01
4.750000000000000333e-01 4.748048154093097994e-01
4.760000000000000342e-01 4.752242375601926638e-01
4.770000000000000351e-01 4.756444800000000361e-01
4.780000000000000360e-01 4.760463258785943008e-01
4.790000000000000369e-01 4.764246815286624637e-01
4.800000000000000377e-01 4.768019077901430869e-01
4.810000000000000386e-01 4.772190476190476538e-01
4.820000000000000395e-01 4.776360759493671337e-01
4.830000000000000404e-01 4.780284360189573922e-01
4.840000000000000413e-01 4.783678233438485861e-01
4.850000000000000422e-01 4.785914960629921722e-01
4.860000000000000431e-01 4.789946624803768094e-01
4.870000000000000440e-01 4.796219092331768796e-01
4.880000000000000449e-01 4.801859154929577489e-01
4.890000000000000457e-01 4.806547581903276578e-01
4.900000000000000466e-01 4.811224299065420817e-01
4.910000000000000475e-01 4.815593167701863742e-01
4.920000000000000484e-01 4.819548136645963043e-01
4.930000000000000493e-01 4.823196290571870604e-01
4.940000000000000502e-01 4.827833075734158097e-01
4.950000000000000511e-01 4.831465331278890774e-01
4.960000000000000520e-01 4.836055384615384756e-01
4.970000000000000528e-01 4.839695852534562359e-01
4.980000000000000537e-01 4.843298621745789068e-01
4.990000000000000546e-01 4.847889908256881042e-01
5.000000000000000000e-01 4.851471755725190738e-01
5.010000000000001119e-01 4.856045662100457183e-01
5.020000000000000018e-01 4.859610942249240062e-01
5.030000000000001137e-01 4.863444613050076359e-01
5.040000000000000036e-01 4.867712556732223805e-01
5.050000000000001155e-01 4.871500756429652523e-01
5.060000000000000053e-01 4.875518853695324228e-01
5.070000000000001172e-01 4.879299698795180884e-01
5.080000000000000071e-01 4.882540540540540874e-01
5.090000000000001190e-01 4.886311844077961819e-01
5.100000000000000089e-01 4.889803892215568992e-01
5.110000000000001208e-01 4.894288059701493165e-01
5.120000000000000107e-01 4.899019374068555033e-01
5.130000000000001226e-01 4.904232142857143373e-01
5.140000000000000124e-01 4.908459940652818987e-01
5.150000000000001243e-01 4.912137777777778602e-01
5.160000000000000142e-01 4.916387001477104945e-01
5.170000000000001261e-01 4.920011816838996133e-01
5.180000000000000160e-01 4.924291176470588227e-01
5.190000000000001279e-01 4.927232352941177118e-01
5.200000000000000178e-01 4.931170337738619569e-01
5.210000000000001297e-01 4.934655929721816214e-01
5.220000000000000195e-01 4.938043859649123291e-01
5.230000000000001315e-01 4.942425655976676602e-01
5.240000000000000213e-01 4.946798833819242014e-01
5.250000000000001332e-01 4.950776162790697654e-01
5.260000000000000231e-01 4.954521044992743484e-01
5.270000000000001350e-01 4.958578871201158034e-01
5.280000000000000249e-01 4.961471098265896051e-01
5.290000000000001368e-01 4.966360230547550714e-01
5.300000000000000266e-01 4.969863112391930682e-01
5.310000000000001386e-01 4.974117816091954691e-01
5.320000000000000284e-01 4.976989956958393080e-01
5.330000000000001403e-01 4.979856733524355428e-01
5.340000000000000302e-01 4.983717142857143068e-01
5.350000000000001421e-01 4.986572039942938628e-01
5.360000000000000320e-01 4.988210826210826565e-01
5.370000000000001439e-01 4.989633522727273118e-01
5.380000000000000338e-01 4.990569405099150035e-01
5.390000000000001457e-01 4.981589235127478199e-01
5.400000000000000355e-01 4.985305084745763060e-01
5.410000000000001474e-01 4.980149506346964738e-01
5.420000000000000373e-01 4.964649295774647419e-01
5.430000000000001492e-01 4.978977528089882920e-01
5.440000000000000391e-01 4.875258064516116430e-01
5.450000000000001510e-01 4.964547619047668947e-01
5.460000000000000409e-01 4.969854748603348971e-01
5.470000000000001528e-01 4.975794979079506963e-01
5.480000000000000426e-01 4.985461752433936189e-01
5.490000000000001545e-01 5.034983310152992830e-01
5.500000000000000444e-01 5.042545076282940464e-01
5.510000000000001563e-01 5.046818559556787154e-01
5.520000000000000462e-01 5.050968232044199535e-01
5.530000000000001581e-01 5.054074482758620368e-01
5.540000000000000480e-01 5.056831955922865829e-01
5.550000000000001599e-01 5.058000000000000274e-01
5.560000000000000497e-01 5.040999999999999925e-01
5.570000000000001616e-01 5.043684931506851044e-01
5.580000000000000515e-01 5.033321477428179813e-01
5.590000000000001634e-01 5.072543715846994372e-01
5.600000000000000533e-01 5.073999999999999622e-01
5.610000000000001652e-01 5.079983673469389283e-01
5.620000000000000551e-01 5.083713704206240802e-01
5.630000000000001670e-01 5.086425474254743229e-01
5.640000000000000568e-01 5.089135135135135490e-01
5.650000000000001688e-01 5.091837837837838165e-01
5.660000000000000586e-01 5.094536388140161742e-01
5.670000000000001705e-01 5.097231182795699533e-01
5.680000000000000604e-01 5.099459677419354575e-01
5.690000000000001723e-01 5.100802684563758849e-01
5.700000000000000622e-01 5.102999999999999758e-01
5.710000000000001741e-01 5.104439839572193494e-01
5.720000000000000639e-01 5.107629333333334465e-01
5.730000000000001759e-01 5.108852197070572476e-01
5.740000000000000657e-01 5.105606382978723490e-01
5.750000000000001776e-01 5.107838196286473842e-01
5.760000000000000675e-01 5.111529801324503630e-01
5.770000000000001794e-01 5.113630952380950889e-01
5.780000000000000693e-01 5.110443857331571360e-01
5.790000000000001812e-01 5.078381578947376296e-01
5.800000000000000711e-01 5.121065789473684404e-01
5.810000000000001830e-01 5.129823915900132425e-01
5.820000000000000728e-01 5.139081258191350310e-01
5.830000000000001847e-01 5.142403141361256980e-01
5.840000000000000746e-01 5.146973890339425761e-01
5.850000000000001865e-01 5.148000000000000353e-01
5.860000000000000764e-01 5.154800781250000741e-01
5.870000000000001883e-01 5.157568270481145412e-01
5.880000000000000782e-01 5.159732814526588607e-01
5.890000000000001901e-01 5.158673575129533173e-01
5.900000000000000799e-01 5.159289780077620513e-01
5.910000000000001918e-01 5.155244186046509247e-01
5.920000000000000817e-01 5.134038659793818127e-01
5.930000000000001936e-01 5.151451737451731017e-01
5.940000000000000835e-01 5.136614395886889284e-01
5.950000000000001954e-01 5.137897435897436083e-01
5.960000000000000853e-01 5.155716112531969486e-01
5.970000000000001972e-01 5.157168797953962658e-01
5.980000000000000870e-01 5.159413793103448942e-01
5.990000000000001990e-01 5.172071337579620121e-01
6.000000000000000888e-01 5.180416772554002902e-01
6.010000000000002007e-01 5.186216010165185519e-01
6.020000000000000906e-01 5.191290240811153867e-01
6.030000000000002025e-01 5.195177215189873410e-01
6.040000000000000924e-01 5.197353535353536058e-01
6.050000000000002043e-01 5.199230769230770433e-01
6.060000000000000941e-01 5.200000000000000178e-01
6.070000000000002061e-01 5.199865577889447588e-01
6.080000000000000959e-01 5.198219573400251203e-01
6.090000000000002078e-01 5.197000000000000508e-01
6.100000000000000977e-01 5.197000000000000508e-01
6.110000000000002096e-01 5.193831460674154243e-01
6.120000000000000995e-01 5.181483790523688793e-01
6.130000000000002114e-01 5.145475716064744631e-01
6.140000000000001013e-01 5.083130597014918761e-01
6.150000000000002132e-01 5.080122828784117139e-01
6.160000000000001030e-01 5.065226765799251130e-01
6.170000000000002149e-01 5.034316440049436681e-01
6.180000000000001048e-01 4.961051915945599022e-01
6.190000000000002167e-01 4.905443349753662585e-01
6.200000000000001066e-01 4.818125615763550473e-01
6.210000000000002185e-01 4.917022113022148089e-01
6.220000000000001084e-01 5.002525153374235423e-01
6.230000000000002203e-01 5.064301470588253862e-01
6.240000000000001101e-01 5.109323960880203241e-01
6.250000000000002220e-01 5.168536019536025261e-01
6.260000000000001119e-01 5.196687804878052930e-01
6.270000000000002238e-01 5.211104750304508260e-01
6.280000000000001137e-01 5.216224787363306081e-01
6.290000000000002256e-01 5.226283636363633356e-01
6.300000000000001155e-01 5.138797575757554359e-01
6.310000000000002274e-01 5.038822249093098948e-01
6.320000000000001172e-01 5.176381642512108971e-01
6.330000000000002292e-01 5.043617611580248905e-01
6.340000000000001190e-01 5.134070998796623764e-01
6.350000000000002309e-01 5.166277310924403121e-01
6.360000000000001208e-01 5.228973589435775837e-01
6.370000000000002327e-01 5.251812949640294326e-01
6.380000000000001226e-01 5.253999999999999782e-01
6.390000000000002345e-01 5.254337708830548737e-01
6.400000000000001243e-01 5.254468973747016269e-01
6.410000000000002363e-01 5.253999999999999782e-01
6.420000000000001261e-01 5.253999999999999782e-01
6.430000000000002380e-01 5.253999999999999782e-01
6.440000000000001279e-01 5.253714454976302628e-01
6.450000000000002398e-01 5.253469822485207219e-01
6.460000000000001297e-01 5.252044864226681486e-01
6.470000000000002416e-01 5.233520661157018417e-01
6.480000000000001315e-01 5.202137647058825420e-01
6.490000000000002434e-01 5.216309411764707971e-01
6.500000000000001332e-01 5.231429577464792313e-01
6.510000000000002451e-01 5.243183840749412461e-01
6.520000000000001350e-01 5.249591334894615491e-01
6.530000000000002469e-01 5.253999999999999782e-01
6.540000000000001368e-01 5.249981351981349853e-01
6.550000000000002487e-01 5.225275902211869994e-01
6.560000000000001386e-01 5.221345348837211908e-01
6.570000000000002505e-01 5.218078977932628648e-01
6.580000000000001403e-01 5.210872389791184611e-01
6.590000000000002522e-01 5.216420625724219606e-01
6.600000000000001421e-01 5.197695150115471119e-01
6.610000000000002540e-01 5.174334872979214905e-01
6.620000000000001439e-01 5.183714285714289272e-01
6.630000000000002558e-01 5.204729574223248001e-01
6.640000000000001457e-01 5.210000000000000187e-01
6.650000000000002576e-01 5.208456946039035085e-01
6.660000000000001474e-01 5.198814220183484158e-01
6.670000000000002593e-01 5.192314645308926391e-01
6.680000000000001492e-01 5.198652968036531208e-01
6.690000000000002611e-01 5.204304446978333942e-01
6.700000000000001510e-01 5.191300683371293800e-01
6.710000000000002629e-01 5.197145620022762813e-01
6.720000000000001528e-01 5.199612499999998194e-01
6.730000000000002647e-01 5.252603174603194258e-01
6.740000000000001545e-01 5.262029445073612699e-01
6.750000000000002665e-01 5.261222598870053391e-01
6.760000000000001563e-01 5.254908680947014687e-01
6.770000000000002682e-01 5.267019165727173657e-01
6.780000000000001581e-01 5.275090090090089889e-01
6.790000000000002700e-01 5.267294382022467136e-01
6.800000000000001599e-01 5.251114478114475848e-01
6.810000000000002718e-01 5.258050448430496848e-01
6.820000000000001616e-01 5.249067114093960429e-01
6.830000000000002736e-01 5.251759776536314428e-01
6.840000000000001634e-01 5.254387959866219093e-01
6.850000000000002753e-01 5.248850779510021436e-01
6.860000000000001652e-01 5.247992213570634723e-01
6.870000000000002771e-01 5.263586666666674185e-01
6.880000000000001670e-01 5.274436182019978103e-01
6.890000000000002789e-01 5.275826135105204928e-01
6.900000000000001688e-01 5.277865044247788129e-01
6.910000000000002807e-01 5.278624724061806717e-01
6.920000000000001705e-01 5.259685777287752551e-01
6.930000000000002824e-01 5.199105726872242927e-01
6.940000000000001723e-01 5.185624175824175008e-01
6.950000000000002842e-01 5.189193194291991107e-01
6.960000000000001741e-01 5.213184210526321527e-01
6.970000000000002860e-01 5.215565169769983411e-01
6.980000000000001759e-01 5.147038251366101713e-01
6.990000000000002878e-01 5.111672131147535492e-01
7.000000000000001776e-01 5.129993456924758499e-01
7.010000000000002895e-01 5.060834602829138440e-01
7.020000000000001794e-01 4.991578718783943880e-01
7.030000000000002913e-01 5.065731019522792256e-01
7.040000000000001812e-01 5.100438177874185852e-01
7.050000000000002931e-01 5.112501621621636794e-01
7.060000000000001830e-01 5.141025945945945086e-01
7.070000000000002949e-01 5.146602591792661663e-01
7.080000000000001847e-01 5.178778017241386644e-01
7.090000000000002967e-01 5.186407965554354904e-01
7.100000000000001865e-01 5.198204301075272094e-01
7.110000000000002984e-01 5.218597207303979912e-01
7.120000000000001883e-01 5.220233654876741403e-01
7.130000000000003002e-01 5.220953961456102910e-01
7.140000000000001901e-01 5.214318376068369787e-01
7.150000000000003020e-01 5.180223880596996899e-01
7.160000000000001918e-01 5.098385927505305615e-01
7.170000000000003038e-01 4.933042553191444024e-01
7.180000000000001936e-01 4.792070063694249260e-01
7.190000000000003055e-01 4.687993630573201176e-01
7.200000000000001954e-01 4.500228813559271068e-01
7.210000000000003073e-01 4.285373544973498650e-01
7.220000000000001972e-01 4.046338266384716942e-01
7.230000000000003091e-01 4.064168954593535554e-01
7.240000000000001990e-01 3.995426765015752668e-01
7.250000000000003109e-01 3.675347734457222182e-01
7.260000000000002007e-01 3.711745798319373013e-01
7.270000000000003126e-01 3.733447478991586133e-01
7.280000000000002025e-01 3.677400419287200628e-01
7.290000000000003144e-01 3.828888888888942743e-01
7.300000000000002043e-01 4.026492163009441350e-01
7.310000000000003162e-01 4.105578892372018229e-01
7.320000000000002061e-01 4.202968749999991260e-01
7.330000000000003180e-01 4.161645161290337125e-01
7.340000000000002078e-01 4.214263759086221972e-01
7.350000000000003197e-01 4.256406639003970649e-01
7.360000000000002096e-01 3.804367219917045295e-01
7.370000000000003215e-01 4.089819027921710592e-01
7.380000000000002114e-01 4.738595656670129275e-01
7.390000000000003233e-01 4.878594427244666853e-01
7.400000000000002132e-01 5.073909278350504648e-01
7.410000000000003251e-01 5.072053553038141649e-01
7.420000000000002149e-01 5.139504624871532590e-01
7.430000000000003268e-01 5.167446043165487835e-01
7.440000000000002167e-01 5.213184615384619525e-01
7.450000000000003286e-01 5.222178096212894971e-01
7.460000000000002185e-01 5.220479017400204702e-01
7.470000000000003304e-01 5.222003064351379287e-01
7.480000000000002203e-01 5.223521916411825172e-01
7.490000000000003322e-01 5.222917431192659610e-01
7.500000000000002220e-01 5.220321464903356912e-01
7.510000000000003340e-01 5.218423780487805308e-01
7.520000000000002238e-01 5.216224365482232672e-01
7.530000000000003357e-01 5.210152988855113465e-01
7.540000000000002256e-01 5.204526315789472779e-01
7.550000000000003375e-01 5.204259858442872311e-01
7.560000000000002274e-01 5.185807265388487908e-01
7.570000000000003393e-01 5.186667338709682884e-01
7.580000000000002292e-01 5.181199395770388350e-01
7.590000000000003411e-01 5.172352112676055214e-01
7.600000000000002309e-01 5.152999999999994252e-01
7.610000000000003428e-01 5.144670010030090168e-01
7.620000000000002327e-01 5.129536072144282866e-01
7.630000000000003446e-01 5.113250999999995328e-01
7.640000000000002345e-01 5.100259740259737162e-01
7.650000000000003464e-01 5.095329341317365035e-01
7.660000000000002363e-01 5.085657370517924214e-01
7.670000000000003482e-01 5.079674626865671172e-01
7.680000000000002380e-01 5.079000000000000181e-01
7.690000000000003499e-01 5.076400793650791554e-01
7.700000000000002398e-01 5.069223214285711876e-01
7.710000000000003517e-01 5.056519287833821652e-01
7.720000000000002416e-01 5.034849653808104453e-01
7.730000000000003535e-01 5.002463968410648665e-01
7.740000000000002434e-01 4.983234714003942911e-01
7.750000000000003553e-01 4.970708661417316820e-01
7.760000000000002451e-01 4.943117010816115986e-01
7.770000000000003570e-01 4.917698428290759871e-01
7.780000000000002469e-01 4.887255152109899470e-01
7.790000000000003588e-01 4.844590597453460323e-01
7.800000000000002487e-01 4.773197651663378949e-01
7.810000000000003606e-01 4.691653320312476616e-01
7.820000000000002505e-01 4.650486829268288824e-01
7.830000000000003624e-01 4.607210526315763666e-01
7.840000000000002522e-01 4.581137293086672835e-01
7.850000000000003642e-01 4.613635568513119178e-01
7.860000000000002540e-01 4.605952473326860863e-01
7.870000000000003659e-01 4.601471387002921687e-01
7.880000000000002558e-01 4.631522749273967454e-01
7.890000000000003677e-01 4.651329787234038671e-01
7.900000000000002576e-01 4.635249999999991322e-01
7.910000000000003695e-01 4.601985535197678501e-01
7.920000000000002593e-01 4.579812319538011378e-01
7.930000000000003713e-01 4.552218479306999743e-01
7.940000000000002611e-01 4.481288184438034228e-01
7.950000000000003730e-01 4.455688398849467768e-01
7.960000000000002629e-01 4.443224352828376023e-01
7.970000000000003748e-01 4.399731800766268908e-01
7.980000000000002647e-01 4.379047846889947415e-01
7.990000000000003766e-01 4.384676217765046125e-01
8.000000000000002665e-01 4.431206106870244077e-01
8.010000000000003784e-01 4.473189704480470819e-01
8.020000000000002682e-01 4.419573739295884485e-01
8.030000000000003801e-01 4.386038022813683601e-01
8.040000000000002700e-01 4.405312440645783867e-01
8.050000000000003819e-01 4.358170616113704043e-01
8.060000000000002718e-01 4.367570075757606918e-01
8.070000000000003837e-01 4.439856332703228659e-01
8.080000000000002736e-01 4.437578847969766982e-01
8.090000000000003855e-01 4.444976415094381572e-01
8.100000000000002753e-01 4.541954802259902668e-01
8.110000000000003872e-01 4.587399811853242748e-01
8.120000000000002771e-01 4.580140845070419520e-01
8.130000000000003890e-01 4.570676360225139345e-01
8.140000000000002789e-01 4.572592314901620658e-01
8.150000000000003908e-01 4.666313027179041506e-01
8.160000000000002807e-01 4.682697848456505163e-01
8.170000000000003926e-01 4.677173831775698343e-01
8.180000000000002824e-01 4.584779850746237284e-01
8.190000000000003944e-01 4.664907735321585092e-01
8.200000000000002842e-01 4.720297951582874130e-01
8.210000000000003961e-01 4.728579925650557847e-01
8.220000000000002860e-01 4.643518105849530619e-01
8.230000000000003979e-01 4.612508804448609556e-01
8.240000000000002878e-01 4.693518518518529081e-01
8.250000000000003997e-01 4.671954671600306308e-01
8.260000000000002895e-01 4.574556786703625200e-01
