# Model: CoolTLusty
# Metallicity: 4.0 x solar
# col 0 - wavelength (microns)
# col 1 - geometric albedo
4.299999999999999933e-01 4.567134751773049839e-01
4.309999999999999942e-01 4.570680851063830263e-01
4.319999999999999951e-01 4.574215547703180951e-01
4.329999999999999960e-01 4.577744268077601486e-01
4.339999999999999969e-01 4.581381621893045875e-01
4.349999999999999978e-01 4.585636090225564954e-01
4.359999999999999987e-01 4.589139104328246455e-01
4.369999999999999996e-01 4.592635502368486722e-01
4.380000000000000004e-01 4.596267826086957720e-01
4.390000000000000013e-01 4.599746086956522650e-01
4.400000000000000022e-01 4.602902946273830787e-01
4.410000000000000031e-01 4.605113692535838799e-01
4.420000000000000040e-01 4.609793596059114096e-01
4.430000000000000049e-01 4.614417487684729924e-01
4.440000000000000058e-01 4.619477172312224655e-01
4.450000000000000067e-01 4.623499021526419339e-01
4.460000000000000075e-01 4.627843444227006664e-01
4.470000000000000084e-01 4.631964102564103403e-01
4.480000000000000093e-01 4.636078364565588417e-01
4.490000000000000102e-01 4.640122241086588328e-01
4.500000000000000111e-01 4.644276740237691659e-01
4.510000000000000120e-01 4.648290790427846986e-01
4.520000000000000129e-01 4.652286677908938350e-01
4.530000000000000138e-01 4.656370513129367561e-01
4.540000000000000147e-01 4.660021848739496209e-01
4.550000000000000155e-01 4.664239052404882124e-01
4.560000000000000164e-01 4.667712849964106847e-01
4.570000000000000173e-01 4.671932268065824290e-01
4.580000000000000182e-01 4.675237857142857667e-01
4.590000000000000191e-01 4.678330401711434106e-01
4.600000000000000200e-01 4.682641554134092110e-01
4.610000000000000209e-01 4.687418401135289292e-01
4.620000000000000218e-01 4.692381109799291794e-01
4.630000000000000226e-01 4.696909155095317367e-01
4.640000000000000235e-01 4.701273026315790360e-01
4.650000000000000244e-01 4.705339901477833542e-01
4.660000000000000253e-01 4.709695113397241450e-01
4.670000000000000262e-01 4.713975996271266289e-01
4.680000000000000271e-01 4.718060358890701633e-01
4.690000000000000280e-01 4.722630894308944005e-01
4.700000000000000289e-01 4.726824390243903329e-01
4.710000000000000298e-01 4.730689320388349883e-01
4.720000000000000306e-01 4.735245492371706333e-01
4.730000000000000315e-01 4.739276497695853463e-01
4.740000000000000324e-01 4.743166743224621618e-01
4.750000000000000333e-01 4.746905296950241770e-01
4.760000000000000342e-01 4.751099518459069304e-01
4.770000000000000351e-01 4.755159085714286138e-01
4.780000000000000360e-01 4.758356458238248154e-01
4.790000000000000369e-01 4.762200409463149264e-01
4.800000000000000377e-01 4.765154667272314959e-01
4.810000000000000386e-01 4.768105442176871489e-01
4.820000000000000395e-01 4.770932188065100110e-01
4.830000000000000404e-01 4.774638230647710313e-01
4.840000000000000413e-01 4.775224876070302549e-01
4.850000000000000422e-01 4.770315860517435613e-01
4.860000000000000431e-01 4.772761830006728712e-01
4.870000000000000440e-01 4.787541918175722278e-01
4.880000000000000449e-01 4.797969818913482287e-01
4.890000000000000457e-01 4.805145085803432803e-01
4.900000000000000466e-01 4.810044503782822112e-01
4.910000000000000475e-01 4.813746894409938193e-01
4.920000000000000484e-01 4.818405279503106264e-01
4.930000000000000493e-01 4.822053433429013825e-01
4.940000000000000502e-01 4.825880768381541897e-01
4.950000000000000511e-01 4.830322474136034550e-01
4.960000000000000520e-01 4.833940219780221148e-01
4.970000000000000528e-01 4.837987711213518338e-01
4.980000000000000537e-01 4.842056224021002442e-01
4.990000000000000546e-01 4.845657055482744391e-01
5.000000000000000000e-01 4.849163576881134752e-01
5.010000000000001119e-01 4.852935203305067668e-01
5.020000000000000018e-01 4.856835866261398627e-01
5.030000000000001137e-01 4.859769997832213972e-01
5.040000000000000036e-01 4.863583963691376910e-01
5.050000000000001155e-01 4.866393559541820624e-01
5.060000000000000053e-01 4.869381383322560208e-01
5.070000000000001172e-01 4.871942771084338264e-01
5.080000000000000071e-01 4.873868725868726326e-01
5.090000000000001190e-01 4.875606768044549733e-01
5.100000000000000089e-01 4.878661035072711649e-01
5.110000000000001208e-01 4.884234754797442402e-01
5.120000000000000107e-01 4.892201405152226124e-01
5.130000000000001226e-01 4.899009353741498041e-01
5.140000000000000124e-01 4.905151335311573324e-01
5.150000000000001243e-01 4.909709206349207600e-01
5.160000000000000142e-01 4.913267144967293221e-01
5.170000000000001261e-01 4.916912639797426099e-01
5.180000000000000160e-01 4.920698949579832560e-01
5.190000000000001279e-01 4.923342016806723787e-01
5.200000000000000178e-01 4.925872456471576122e-01
5.210000000000001297e-01 4.928596527923029824e-01
5.220000000000000195e-01 4.931329573934838395e-01
5.230000000000001315e-01 4.935371928363182503e-01
5.240000000000000213e-01 4.939503540191587105e-01
5.250000000000001332e-01 4.944409468438539790e-01
5.260000000000000231e-01 4.948777939042090512e-01
5.270000000000001350e-01 4.952864585486872473e-01
5.280000000000000249e-01 4.955126341866226691e-01
5.290000000000001368e-01 4.960477356937011972e-01
5.300000000000000266e-01 4.962709757101688712e-01
5.310000000000001386e-01 4.966663998357965237e-01
5.320000000000000284e-01 4.968425701988112841e-01
5.330000000000001403e-01 4.969244781006959544e-01
5.340000000000000302e-01 4.970062040816327631e-01
5.350000000000001421e-01 4.969867128591807792e-01
5.360000000000000320e-01 4.967352055352055595e-01
5.370000000000001439e-01 4.960780032467532186e-01
5.380000000000000338e-01 4.950658842573858465e-01
5.390000000000001457e-01 4.917920679886683688e-01
5.400000000000000355e-01 4.915859967715901502e-01
5.410000000000001474e-01 4.886041708643955594e-01
5.420000000000000373e-01 4.828462977867203354e-01
5.430000000000001492e-01 4.854653290529682974e-01
5.440000000000000391e-01 4.600631336405499594e-01
5.450000000000001510e-01 4.834698479391882908e-01
5.460000000000000409e-01 4.856800478850750724e-01
5.470000000000001528e-01 4.874722255429392304e-01
5.480000000000000426e-01 4.892825153983708653e-01
5.490000000000001545e-01 5.018532684283733003e-01
5.500000000000000444e-01 5.034567465821281340e-01
5.510000000000001563e-01 5.039623862287297973e-01
5.520000000000000462e-01 5.043740726124704699e-01
5.530000000000001581e-01 5.047180098522168201e-01
5.540000000000000480e-01 5.048439984258167312e-01
5.550000000000001599e-01 5.044556101395165637e-01
5.560000000000000497e-01 4.994432686654908804e-01
5.570000000000001616e-01 4.993801174168299717e-01
5.580000000000000515e-01 4.956689661911275468e-01
5.590000000000001634e-01 5.059206674473069043e-01
5.600000000000000533e-01 5.058143246399378068e-01
5.610000000000001652e-01 5.068682410106902791e-01
5.620000000000000551e-01 5.072693545260710257e-01
5.630000000000001670e-01 5.074752226093690588e-01
5.640000000000000568e-01 5.077048262548262691e-01
5.650000000000001688e-01 5.077953667953668537e-01
5.660000000000000586e-01 5.078505198305738322e-01
5.670000000000001705e-01 5.078060291858679243e-01
5.680000000000000604e-01 5.076706221198156177e-01
5.690000000000001723e-01 5.075513135186960900e-01
5.700000000000000622e-01 5.073371581564353194e-01
5.710000000000001741e-01 5.071216959511078981e-01
5.720000000000000639e-01 5.071603428571428429e-01
5.730000000000001759e-01 5.066124405554497390e-01
5.740000000000000657e-01 5.052247720364742012e-01
5.750000000000001776e-01 5.046847669571807860e-01
5.760000000000000675e-01 5.049374645222328706e-01
5.770000000000001794e-01 5.051073129251699712e-01
5.780000000000000693e-01 5.041601622947726735e-01
5.790000000000001812e-01 4.955060902255659649e-01
5.800000000000000711e-01 5.067768796992483393e-01
5.810000000000001830e-01 5.089883236343162309e-01
5.820000000000000728e-01 5.111699120014978615e-01
5.830000000000001847e-01 5.117821241585641667e-01
5.840000000000000746e-01 5.125827303245058530e-01
5.850000000000001865e-01 5.124247295785153700e-01
5.860000000000000764e-01 5.138886718750000915e-01
5.870000000000001883e-01 5.142850826676574894e-01
5.880000000000000782e-01 5.145323327774690148e-01
5.890000000000001901e-01 5.141779052553661078e-01
5.900000000000000799e-01 5.133950656070968011e-01
5.910000000000001918e-01 5.132139165743816456e-01
5.920000000000000817e-01 5.083249815905749314e-01
5.930000000000001936e-01 5.091297297297279201e-01
5.940000000000000835e-01 5.050059860448035121e-01
5.950000000000001954e-01 5.051018315018315219e-01
5.960000000000000853e-01 5.089103397880894164e-01
5.970000000000001972e-01 5.100191085129704982e-01
5.980000000000000870e-01 5.104825944170773289e-01
5.990000000000001990e-01 5.119840946314836438e-01
6.000000000000000888e-01 5.134693047740063188e-01
6.010000000000002007e-01 5.145654020693413155e-01
6.020000000000000906e-01 5.156101213108819081e-01
6.030000000000002025e-01 5.163732368896927216e-01
6.040000000000000924e-01 5.167261183261183666e-01
6.050000000000002043e-01 5.167472527472527499e-01
6.060000000000000941e-01 5.163261574491082584e-01
6.070000000000002061e-01 5.154103553481692579e-01
6.080000000000000959e-01 5.140833124215808958e-01
6.090000000000002078e-01 5.130576083064803949e-01
6.100000000000000977e-01 5.123879313427498472e-01
6.110000000000002096e-01 5.102688603531290168e-01
6.120000000000000995e-01 5.051008550053430746e-01
6.130000000000002114e-01 4.932032734388860917e-01
6.140000000000001013e-01 4.755146588486122150e-01
6.150000000000002132e-01 4.730528181495916584e-01
6.160000000000001030e-01 4.685733758187277664e-01
6.170000000000002149e-01 4.602373653540506315e-01
6.180000000000001048e-01 4.428868620872299933e-01
6.190000000000002167e-01 4.301742258972498512e-01
6.200000000000001066e-01 4.146314743138641012e-01
6.210000000000002185e-01 4.334608810108878663e-01
6.220000000000001084e-01 4.516554776511838565e-01
6.230000000000002203e-01 4.676632352941224591e-01
6.240000000000001101e-01 4.797162067761110427e-01
6.250000000000002220e-01 4.967108843537433871e-01
6.260000000000001119e-01 5.055299651567957131e-01
6.270000000000002238e-01 5.101465460240132144e-01
6.280000000000001137e-01 5.123065440027777528e-01
6.290000000000002256e-01 5.154273766233760101e-01
6.300000000000001155e-01 4.946133852813803800e-01
6.310000000000002274e-01 4.706572983244062813e-01
6.320000000000001172e-01 5.037948240165706082e-01
6.330000000000002292e-01 4.722451318283718003e-01
6.340000000000001190e-01 4.931217981777533121e-01
6.350000000000002309e-01 5.007815126050496612e-01
6.360000000000001208e-01 5.146316583776370246e-01
6.370000000000002327e-01 5.204163926002073337e-01
6.380000000000001226e-01 5.207058883768561630e-01
6.390000000000002345e-01 5.202322707125809353e-01
6.400000000000001243e-01 5.198286737129218515e-01
6.410000000000002363e-01 5.191290986394556661e-01
6.420000000000001261e-01 5.183695940207235786e-01
6.430000000000002380e-01 5.180713777325877123e-01
6.440000000000001279e-01 5.182367129316182153e-01
6.450000000000002398e-01 5.183285714285714718e-01
6.460000000000001297e-01 5.180865069994939898e-01
6.470000000000002416e-01 5.165897115871137535e-01
6.480000000000001315e-01 5.140363529411764443e-01
6.490000000000002434e-01 5.133216806722689096e-01
6.500000000000001332e-01 5.136084004024148442e-01
6.510000000000002451e-01 5.143934426229506141e-01
6.520000000000001350e-01 5.152096186015393542e-01
6.530000000000002469e-01 5.151796992481201265e-01
6.540000000000001368e-01 5.132596403596400014e-01
6.550000000000002487e-01 5.088928488275392681e-01
6.560000000000001386e-01 5.064433720930233696e-01
6.570000000000002505e-01 5.050183673469377243e-01
6.580000000000001403e-01 5.034155452436196443e-01
6.590000000000002522e-01 5.027444462837277195e-01
6.600000000000001421e-01 4.977731276806328098e-01
6.610000000000002540e-01 4.911591388980533490e-01
6.620000000000001439e-01 4.923913265306131826e-01
6.630000000000002558e-01 4.967632911392411699e-01
6.640000000000001457e-01 4.974634482758620857e-01
6.650000000000002576e-01 4.964370346071836360e-01
6.660000000000001474e-01 4.928263433813885874e-01
6.670000000000002593e-01 4.908756129454074357e-01
6.680000000000001492e-01 4.926954174820615817e-01
6.690000000000002611e-01 4.947167453982735386e-01
6.700000000000001510e-01 4.926333550276592588e-01
6.710000000000002629e-01 4.955347472777537066e-01
6.720000000000001528e-01 4.978489285714283175e-01
6.730000000000002647e-01 5.119704081632704407e-01
6.740000000000001545e-01 5.152538100630968954e-01
6.750000000000002665e-01 5.157163841807904658e-01
6.760000000000001563e-01 5.146518279916256766e-01
6.770000000000002682e-01 5.180311644387188830e-01
6.780000000000001581e-01 5.200141570141570968e-01
6.790000000000002700e-01 5.176028571428559211e-01
6.800000000000001599e-01 5.127432419432412791e-01
6.810000000000002718e-01 5.137187219730947607e-01
6.820000000000001616e-01 5.102232023010545570e-01
6.830000000000002736e-01 5.098937589784522384e-01
6.840000000000001634e-01 5.109379359770662710e-01
6.850000000000002753e-01 5.100872096722876003e-01
6.860000000000001652e-01 5.101482758620691227e-01
6.870000000000002771e-01 5.143740793650815046e-01
6.880000000000001670e-01 5.175931663231332358e-01
6.890000000000002789e-01 5.182441227653854510e-01
6.900000000000001688e-01 5.192211283185842463e-01
6.910000000000002807e-01 5.194738883632918913e-01
6.920000000000001705e-01 5.173093558040628981e-01
6.930000000000002824e-01 5.122228917558208083e-01
6.940000000000001723e-01 5.101259183673467756e-01
6.950000000000002842e-01 5.076481888035119239e-01
6.960000000000001741e-01 5.050582706766914010e-01
6.970000000000002860e-01 5.001327648255340375e-01
6.980000000000001759e-01 4.901860889929720022e-01
6.990000000000002878e-01 4.815403434816525885e-01
7.000000000000001776e-01 4.749525938619714172e-01
7.010000000000002895e-01 4.635498834136454471e-01
7.020000000000001794e-01 4.540705289281845025e-01
7.030000000000002913e-01 4.591617601487471001e-01
7.040000000000001812e-01 4.638453672141306661e-01
7.050000000000002931e-01 4.678669961390004017e-01
7.060000000000001830e-01 4.774970347490349321e-01
7.070000000000002949e-01 4.806429805615566320e-01
7.080000000000001847e-01 4.882358682266028649e-01
7.090000000000002967e-01 4.914031985237581890e-01
7.100000000000001865e-01 4.951180491551468998e-01
7.110000000000002984e-01 5.006385760319180811e-01
7.120000000000001883e-01 5.010070127086203584e-01
7.130000000000003002e-01 5.012147598654024261e-01
7.140000000000001901e-01 5.003632173382158710e-01
7.150000000000003020e-01 4.911566859579601374e-01
7.160000000000001918e-01 4.685842217483955352e-01
7.170000000000003038e-01 4.348250759878347638e-01
7.180000000000001936e-01 4.088983621474012731e-01
7.190000000000003055e-01 3.845210494388768274e-01
7.200000000000001954e-01 3.537186440677877464e-01
7.210000000000003073e-01 3.189309901738412445e-01
7.220000000000001972e-01 2.880797795227951208e-01
7.230000000000003091e-01 2.955460401267291370e-01
7.240000000000001990e-01 2.876259069697350013e-01
7.250000000000003109e-01 2.503218274875704252e-01
7.260000000000002007e-01 2.505731992797153862e-01
7.270000000000003126e-01 2.503751200480176520e-01
7.280000000000002025e-01 2.404866127583088764e-01
7.290000000000003144e-01 2.617968253968331327e-01
7.300000000000002043e-01 2.882792207792257422e-01
7.310000000000003162e-01 2.984050903119896958e-01
7.320000000000002061e-01 3.116226785714271696e-01
7.330000000000003180e-01 3.050714285714308249e-01
7.340000000000002078e-01 3.130079958463185541e-01
7.350000000000003197e-01 3.202241256668395541e-01
7.360000000000002096e-01 2.562001778304709432e-01
7.370000000000003215e-01 2.945259122470599289e-01
7.380000000000002114e-01 4.058242280986891215e-01
7.390000000000003233e-01 4.341149049093465107e-01
7.400000000000002132e-01 4.680062739322521925e-01
7.410000000000003251e-01 4.726367073709079603e-01
7.420000000000002149e-01 4.912763324034662427e-01
7.430000000000003268e-01 4.995017765379570207e-01
7.440000000000002167e-01 5.083389010989022294e-01
7.450000000000003286e-01 5.108711361310132038e-01
7.460000000000002185e-01 5.107479017400206045e-01
7.470000000000003304e-01 5.112872026849559770e-01
7.480000000000002203e-01 5.120323867773410864e-01
7.490000000000003322e-01 5.119698558322409720e-01
7.500000000000002220e-01 5.115863973259701103e-01
7.510000000000003340e-01 5.115433362369338210e-01
7.520000000000002238e-01 5.112644089920231893e-01
7.530000000000003357e-01 5.101340425531910583e-01
7.540000000000002256e-01 5.091541353383457480e-01
7.550000000000003375e-01 5.092292503250037683e-01
7.560000000000002274e-01 5.042413867666116767e-01
7.570000000000003393e-01 5.043287442396330311e-01
7.580000000000002292e-01 5.027915839447550939e-01
7.590000000000003411e-01 5.000126760563374795e-01
7.600000000000002309e-01 4.937952380952362330e-01
7.610000000000003428e-01 4.913638630176245248e-01
7.620000000000002327e-01 4.866874463212121915e-01
7.630000000000003446e-01 4.822664428571418194e-01
7.640000000000002345e-01 4.790431425717132652e-01
7.650000000000003464e-01 4.782062446535502165e-01
7.660000000000002363e-01 4.761549800796803789e-01
7.670000000000003482e-01 4.753743710021324231e-01
7.680000000000002380e-01 4.762419483101395512e-01
7.690000000000003499e-01 4.766885487528345622e-01
7.700000000000002398e-01 4.756649092970517412e-01
7.710000000000003517e-01 4.731572276388288922e-01
7.720000000000002416e-01 4.679786491451164987e-01
7.730000000000003535e-01 4.596006064024786286e-01
7.740000000000002434e-01 4.552952099182867030e-01
7.750000000000003553e-01 4.532836895388067111e-01
7.760000000000002451e-01 4.474575923584752091e-01
7.770000000000003570e-01 4.416423940499564216e-01
7.780000000000002469e-01 4.346473433337978975e-01
7.790000000000003588e-01 4.250002098782668658e-01
7.800000000000002487e-01 4.092749510763152299e-01
7.810000000000003606e-01 3.922845145089240981e-01
7.820000000000002505e-01 3.846731846689889767e-01
7.830000000000003624e-01 3.770523252575836981e-01
7.840000000000002522e-01 3.731847683961636575e-01
7.850000000000003642e-01 3.809736359850067200e-01
7.860000000000002540e-01 3.806308854094490601e-01
7.870000000000003659e-01 3.806006096716113563e-01
7.880000000000002558e-01 3.874794357626904495e-01
7.890000000000003677e-01 3.935546974302299716e-01
7.900000000000002576e-01 3.935311776061761191e-01
7.910000000000003695e-01 3.867760297561620986e-01
7.920000000000002593e-01 3.788626426508990286e-01
7.930000000000003713e-01 3.717792520280441271e-01
7.940000000000002611e-01 3.588231782626588595e-01
7.950000000000003730e-01 3.559606218326251126e-01
7.960000000000002629e-01 3.543854951376520512e-01
7.970000000000003748e-01 3.481222222222202234e-01
7.980000000000002647e-01 3.432918250170869934e-01
7.990000000000003766e-01 3.451495019784427409e-01
8.000000000000002665e-01 3.578619683751405045e-01
8.010000000000003784e-01 3.645818875119178348e-01
8.020000000000002682e-01 3.575351773820820145e-01
8.030000000000003801e-01 3.564512221618698073e-01
8.040000000000002700e-01 3.620466286799639555e-01
8.050000000000003819e-01 3.537680027081851475e-01
8.060000000000002718e-01 3.546993235930787636e-01
8.070000000000003837e-01 3.674417499324903469e-01
8.080000000000002736e-01 3.674360178065531057e-01
8.090000000000003855e-01 3.695555256064776417e-01
8.100000000000002753e-01 3.902647027172489458e-01
8.110000000000003872e-01 4.031038301303612181e-01
8.120000000000002771e-01 4.093915492957775903e-01
8.130000000000003890e-01 4.187239882069169750e-01
8.140000000000002789e-01 4.235878832507731229e-01
8.150000000000003908e-01 4.344193198554063828e-01
8.160000000000002807e-01 4.389580248563422771e-01
8.170000000000003926e-01 4.439139519359164288e-01
8.180000000000002824e-01 4.386898054370981792e-01
8.190000000000003944e-01 4.476197710025354159e-01
8.200000000000002842e-01 4.538646980579951196e-01
8.210000000000003961e-01 4.557207647371221415e-01
8.220000000000002860e-01 4.460519034354628043e-01
8.230000000000003979e-01 4.436662253409308088e-01
8.240000000000002878e-01 4.540375661375667393e-01
8.250000000000003997e-01 4.489126338046695031e-01
8.260000000000002895e-01 4.357618124258049175e-01
