# Model: CoolTLusty
# Metallicity: 17.0 x solar
# col 0 - wavelength (microns)
# col 1 - geometric albedo
4.299999999999999933e-01 4.565408333333332846e-01
4.309999999999999942e-01 4.569280851063829973e-01
4.319999999999999951e-01 4.572465547703180033e-01
4.329999999999999960e-01 4.575864021164021134e-01
4.339999999999999969e-01 4.578817135325131682e-01
4.349999999999999978e-01 4.582328947368421446e-01
4.359999999999999987e-01 4.585607618213660142e-01
4.369999999999999996e-01 4.588628359511343624e-01
4.380000000000000004e-01 4.593514695652173296e-01
4.390000000000000013e-01 4.596990521739130475e-01
4.400000000000000022e-01 4.595091854419410815e-01
4.410000000000000031e-01 4.592465224913494515e-01
4.420000000000000040e-01 4.599381206896551721e-01
4.430000000000000049e-01 4.608825431034482834e-01
4.440000000000000058e-01 4.616272680412371043e-01
4.450000000000000067e-01 4.621517123287671169e-01
4.460000000000000075e-01 4.625440410958903681e-01
4.470000000000000084e-01 4.629514102564102895e-01
4.480000000000000093e-01 4.633502555366268982e-01
4.490000000000000102e-01 4.637672241086587821e-01
4.500000000000000111e-01 4.641561120543293839e-01
4.510000000000000120e-01 4.645103553299492205e-01
4.520000000000000129e-01 4.649136677908937698e-01
4.530000000000000138e-01 4.652218971332209851e-01
4.540000000000000147e-01 4.655821848739495894e-01
4.550000000000000155e-01 4.658831909547738737e-01
4.560000000000000164e-01 4.662744891122278523e-01
4.570000000000000173e-01 4.665448831385642925e-01
4.580000000000000182e-01 4.667339750000000231e-01
4.590000000000000191e-01 4.666951913477537794e-01
4.600000000000000200e-01 4.671065671641791428e-01
4.610000000000000209e-01 4.680173178807947032e-01
4.620000000000000218e-01 4.686862892561983740e-01
4.630000000000000226e-01 4.691922817133443169e-01
4.640000000000000235e-01 4.696373026315789900e-01
4.650000000000000244e-01 4.699893924466338468e-01
4.660000000000000253e-01 4.703237970540097845e-01
4.670000000000000262e-01 4.707566394779772456e-01
4.680000000000000271e-01 4.712460358890701584e-01
4.690000000000000280e-01 4.717030894308943401e-01
4.700000000000000289e-01 4.720894878048780274e-01
4.710000000000000298e-01 4.724892233009708731e-01
4.720000000000000306e-01 4.728180258899676303e-01
4.730000000000000315e-01 4.731943548387096410e-01
4.740000000000000324e-01 4.736023794212218530e-01
4.750000000000000333e-01 4.738686918138041992e-01
4.760000000000000342e-01 4.741974959871589346e-01
4.770000000000000351e-01 4.744189119999999704e-01
4.780000000000000360e-01 4.745692651757188463e-01
4.790000000000000369e-01 4.745583757961783222e-01
4.800000000000000377e-01 4.744240779014308185e-01
4.810000000000000386e-01 4.742145238095237803e-01
4.820000000000000395e-01 4.739358227848101679e-01
4.830000000000000404e-01 4.739278909952606145e-01
4.840000000000000413e-01 4.726235962145108882e-01
4.850000000000000422e-01 4.684720393700784746e-01
4.860000000000000431e-01 4.681302747252748531e-01
4.870000000000000440e-01 4.734392566510174927e-01
4.880000000000000449e-01 4.770902112676057572e-01
4.890000000000000457e-01 4.789749531981279951e-01
4.900000000000000466e-01 4.797675233644859705e-01
4.910000000000000475e-01 4.801585947204968785e-01
4.920000000000000484e-01 4.805998136645963092e-01
4.930000000000000493e-01 4.809646290571870653e-01
4.940000000000000502e-01 4.813952550231839767e-01
4.950000000000000511e-01 4.817394375963020003e-01
4.960000000000000520e-01 4.820813692307692744e-01
4.970000000000000528e-01 4.823982718894009314e-01
4.980000000000000537e-01 4.827129402756508147e-01
4.990000000000000546e-01 4.829118960244648262e-01
5.000000000000000000e-01 4.831454427480916247e-01
5.010000000000001119e-01 4.833197792998478182e-01
5.020000000000000018e-01 4.834850911854103317e-01
5.030000000000001137e-01 4.834761077389984063e-01
5.040000000000000036e-01 4.834454992435703313e-01
5.050000000000001155e-01 4.833849848714069641e-01
5.060000000000000053e-01 4.831496003016591545e-01
5.070000000000001172e-01 4.827785316265059690e-01
5.080000000000000071e-01 4.820363513513513665e-01
5.090000000000001190e-01 4.813922563718139869e-01
5.100000000000000089e-01 4.812553892215569173e-01
5.110000000000001208e-01 4.823292089552240758e-01
5.120000000000000107e-01 4.846059910581222985e-01
5.130000000000001226e-01 4.865793750000002582e-01
5.140000000000000124e-01 4.878791839762611215e-01
5.150000000000001243e-01 4.885337185185185671e-01
5.160000000000000142e-01 4.889269276218611293e-01
5.170000000000001261e-01 4.891237075332349193e-01
5.180000000000000160e-01 4.892040808823529541e-01
5.190000000000001279e-01 4.890106029411764310e-01
5.200000000000000178e-01 4.886756314243759225e-01
5.210000000000001297e-01 4.884949633967788918e-01
5.220000000000000195e-01 4.883938742690058787e-01
5.230000000000001315e-01 4.888617201166181592e-01
5.240000000000000213e-01 4.893652186588921538e-01
5.250000000000001332e-01 4.902667296511628581e-01
5.260000000000000231e-01 4.908879027576197873e-01
5.270000000000001350e-01 4.912860636758320521e-01
5.280000000000000249e-01 4.906349927745664030e-01
5.290000000000001368e-01 4.918086671469739657e-01
5.300000000000000266e-01 4.915035806916426275e-01
5.310000000000001386e-01 4.919543678160918088e-01
5.320000000000000284e-01 4.911581133428981616e-01
5.330000000000001403e-01 4.902369197707735493e-01
5.340000000000000302e-01 4.893351357142856628e-01
5.350000000000001421e-01 4.879717760342365818e-01
5.360000000000000320e-01 4.852652849002847546e-01
5.370000000000001439e-01 4.813222585227266981e-01
5.380000000000000338e-01 4.762493767705384684e-01
5.390000000000001457e-01 4.641669971671379957e-01
5.400000000000000355e-01 4.620524011299435574e-01
5.410000000000001474e-01 4.515352327221404671e-01
5.420000000000000373e-01 4.330108380281688096e-01
5.430000000000001492e-01 4.395934269662885030e-01
5.440000000000000391e-01 3.931130645161240444e-01
5.450000000000001510e-01 4.412888235294351036e-01
5.460000000000000409e-01 4.473233240223451479e-01
5.470000000000001528e-01 4.544619386331990030e-01
5.480000000000000426e-01 4.584616689847010873e-01
5.490000000000001545e-01 4.924225452016705029e-01
5.500000000000000444e-01 4.979414355062415920e-01
5.510000000000001563e-01 4.987851038781164759e-01
5.520000000000000462e-01 4.995391781767955508e-01
5.530000000000001581e-01 4.995732965517241109e-01
5.540000000000000480e-01 4.991545730027547867e-01
5.550000000000001599e-01 4.962389958734516604e-01
5.560000000000000497e-01 4.768317832647460119e-01
5.570000000000001616e-01 4.745440821917812357e-01
5.580000000000000515e-01 4.617308686730502987e-01
5.590000000000001634e-01 4.980022267759561250e-01
5.600000000000000533e-01 4.962061920980923579e-01
5.610000000000001652e-01 4.995785306122458302e-01
5.620000000000000551e-01 5.004589009497965035e-01
5.630000000000001670e-01 5.003667615176151662e-01
5.640000000000000568e-01 5.002140540540539471e-01
5.650000000000001688e-01 4.996652702702701343e-01
5.660000000000000586e-01 4.986481940700808191e-01
5.670000000000001705e-01 4.975024731182793314e-01
5.680000000000000604e-01 4.960777419354837625e-01
5.690000000000001723e-01 4.947865973154359498e-01
5.700000000000000622e-01 4.922622757697455165e-01
5.710000000000001741e-01 4.905535628342247434e-01
5.720000000000000639e-01 4.899414733333331551e-01
5.730000000000001759e-01 4.871250199733681563e-01
5.740000000000000657e-01 4.824274999999997315e-01
5.750000000000001776e-01 4.781656631299731064e-01
5.760000000000000675e-01 4.783410596026492212e-01
5.770000000000001794e-01 4.777751587301577452e-01
5.780000000000000693e-01 4.750682760898282675e-01
5.790000000000001812e-01 4.455679078947432648e-01
5.800000000000000711e-01 4.819176578947371725e-01
5.810000000000001830e-01 4.897992181340353746e-01
5.820000000000000728e-01 4.972242988204456648e-01
5.830000000000001847e-01 4.987218324607335940e-01
5.840000000000000746e-01 5.012520365535249045e-01
5.850000000000001865e-01 5.000283028720622358e-01
5.860000000000000764e-01 5.052235026041668187e-01
5.870000000000001883e-01 5.059329908972692857e-01
5.880000000000000782e-01 5.061056679636835032e-01
5.890000000000001901e-01 5.042958937823815990e-01
5.900000000000000799e-01 4.996606921086678144e-01
5.910000000000001918e-01 5.011348062015503757e-01
5.920000000000000817e-01 4.852763466494852684e-01
5.930000000000001936e-01 4.813062934362860035e-01
5.940000000000000835e-01 4.684105912596406851e-01
5.950000000000001954e-01 4.697973076923073754e-01
5.960000000000000853e-01 4.817852557544767822e-01
5.970000000000001972e-01 4.873392583120206289e-01
5.980000000000000870e-01 4.885159770114942956e-01
5.990000000000001990e-01 4.909138471337586296e-01
6.000000000000000888e-01 4.938732147395173966e-01
6.010000000000002007e-01 4.966994155019066048e-01
6.020000000000000906e-01 4.996144676806086316e-01
6.030000000000002025e-01 5.017348734177217162e-01
6.040000000000000924e-01 5.025633333333333619e-01
6.050000000000002043e-01 5.019561538461535521e-01
6.060000000000000941e-01 4.995424401008825011e-01
6.070000000000002061e-01 4.951971168341698371e-01
6.080000000000000959e-01 4.894497804265992569e-01
6.090000000000002078e-01 4.851566040100245836e-01
6.100000000000000977e-01 4.821771026282852257e-01
6.110000000000002096e-01 4.745947752808953868e-01
6.120000000000000995e-01 4.582303615960076626e-01
6.130000000000002114e-01 4.286068181818093459e-01
6.140000000000001013e-01 3.940421455223845904e-01
6.150000000000002132e-01 3.859440260545889956e-01
6.160000000000001030e-01 3.775089776951651710e-01
6.170000000000002149e-01 3.632694375772523854e-01
6.180000000000001048e-01 3.372428368355951389e-01
6.190000000000002167e-01 3.195829802955624244e-01
6.200000000000001066e-01 3.077354248768475187e-01
6.210000000000002185e-01 3.261253439803518117e-01
6.220000000000001084e-01 3.506811963190197279e-01
6.230000000000002203e-01 3.792173529411849708e-01
6.240000000000001101e-01 3.996316198044052026e-01
6.250000000000002220e-01 4.376586324786376214e-01
6.260000000000001119e-01 4.595912195121977240e-01
6.270000000000002238e-01 4.688826187576137228e-01
6.280000000000001137e-01 4.775987849331727042e-01
6.290000000000002256e-01 4.888750909090892049e-01
6.300000000000001155e-01 4.520622424242339843e-01
6.310000000000002274e-01 4.105345223700083146e-01
6.320000000000001172e-01 4.631627294686108121e-01
6.330000000000002292e-01 4.157053799758855805e-01
6.340000000000001190e-01 4.494148856799017877e-01
6.350000000000002309e-01 4.654895378151384655e-01
6.360000000000001208e-01 4.857061524609840863e-01
6.370000000000002327e-01 5.012755575539621367e-01
6.380000000000001226e-01 5.008291039426520097e-01
6.390000000000002345e-01 4.989939797136035415e-01
6.400000000000001243e-01 4.975729773269688128e-01
6.410000000000002363e-01 4.945045178571420563e-01
6.420000000000001261e-01 4.907076099881090836e-01
6.430000000000002380e-01 4.896564946619220704e-01
6.440000000000001279e-01 4.913119194312798865e-01
6.450000000000002398e-01 4.922385562130178194e-01
6.460000000000001297e-01 4.919299881936244900e-01
6.470000000000002416e-01 4.914004427390789576e-01
6.480000000000001315e-01 4.888293882352933162e-01
6.490000000000002434e-01 4.832563647058810696e-01
6.500000000000001332e-01 4.798275528169015369e-01
6.510000000000002451e-01 4.800309484777516844e-01
6.520000000000001350e-01 4.805122540983607915e-01
6.530000000000002469e-01 4.780611871345019082e-01
6.540000000000001368e-01 4.720368181818175857e-01
6.550000000000002487e-01 4.653013911525002988e-01
6.560000000000001386e-01 4.574006395348831355e-01
6.570000000000002505e-01 4.535355749128912040e-01
6.580000000000001403e-01 4.510422969837584173e-01
6.590000000000002522e-01 4.460417381228256040e-01
6.600000000000001421e-01 4.356710334872960777e-01
6.610000000000002540e-01 4.185360161662808332e-01
6.620000000000001439e-01 4.195191071428590046e-01
6.630000000000002558e-01 4.280319217491376782e-01
6.640000000000001457e-01 4.279425402298847048e-01
6.650000000000002576e-01 4.234965384615370643e-01
6.660000000000001474e-01 4.155999655963287798e-01
6.670000000000002593e-01 4.115451144164768427e-01
6.680000000000001492e-01 4.156231906392700570e-01
6.690000000000002611e-01 4.209911402508561551e-01
6.700000000000001510e-01 4.181802277904306808e-01
6.710000000000002629e-01 4.274933959044446286e-01
6.720000000000001528e-01 4.369525000000002435e-01
6.730000000000002647e-01 4.680094047619154929e-01
6.740000000000001545e-01 4.768676274065694054e-01
6.750000000000002665e-01 4.795757683615802236e-01
6.760000000000001563e-01 4.773114937993256368e-01
6.770000000000002682e-01 4.879205806087959507e-01
6.780000000000001581e-01 4.926904504504504567e-01
6.790000000000002700e-01 4.848833820224679458e-01
6.800000000000001599e-01 4.708124130190777246e-01
6.810000000000002718e-01 4.729500784753376541e-01
6.820000000000001616e-01 4.625382550335565002e-01
6.830000000000002736e-01 4.605642458100568382e-01
6.840000000000001634e-01 4.630735562987734477e-01
6.850000000000002753e-01 4.624552338530070750e-01
6.860000000000001652e-01 4.637463793103449583e-01
6.870000000000002771e-01 4.738452388888940159e-01
6.880000000000001670e-01 4.824009766925644316e-01
6.890000000000002789e-01 4.854555592469553815e-01
6.900000000000001688e-01 4.889543473451332112e-01
6.910000000000002807e-01 4.895280353200879842e-01
6.920000000000001705e-01 4.879886879823588375e-01
6.930000000000002824e-01 4.835539482378845566e-01
6.940000000000001723e-01 4.789308186813178714e-01
6.950000000000002842e-01 4.702724862788112969e-01
6.960000000000001741e-01 4.556365789473658667e-01
6.970000000000002860e-01 4.382645837896993468e-01
6.980000000000001759e-01 4.234572295081940885e-01
6.990000000000002878e-01 4.056138633879721733e-01
7.000000000000001776e-01 3.827548418756780979e-01
7.010000000000002895e-01 3.666564036996696196e-01
7.020000000000001794e-01 3.535269761129207766e-01
7.030000000000002913e-01 3.542902928416504227e-01
7.040000000000001812e-01 3.583879067245117067e-01
7.050000000000002931e-01 3.669700000000083451e-01
7.060000000000001830e-01 3.870918918918926921e-01
7.070000000000002949e-01 3.952570842332643331e-01
7.080000000000001847e-01 4.092567564655202883e-01
7.090000000000002967e-01 4.177061141011851886e-01
7.100000000000001865e-01 4.270479301075288392e-01
7.110000000000002984e-01 4.388592964554275389e-01
7.120000000000001883e-01 4.397515487674166779e-01
7.130000000000003002e-01 4.400195128479658657e-01
7.140000000000001901e-01 4.395065918803385263e-01
7.150000000000003020e-01 4.196228571428461396e-01
7.160000000000001918e-01 3.743237100213137603e-01
7.170000000000003038e-01 3.229692021276493463e-01
7.180000000000001936e-01 2.871621337579546296e-01
7.190000000000003055e-01 2.569084182590155030e-01
7.200000000000001954e-01 2.291945444915187702e-01
7.210000000000003073e-01 2.064103862433836478e-01
7.220000000000001972e-01 1.936879598308636485e-01
7.230000000000003091e-01 1.904695934530116763e-01
7.240000000000001990e-01 1.758141570073710747e-01
7.250000000000003109e-01 1.475075184404550377e-01
7.260000000000002007e-01 1.380520378151256222e-01
7.270000000000003126e-01 1.306352521008374290e-01
7.280000000000002025e-01 1.309361006289313234e-01
7.290000000000003144e-01 1.475000000000054323e-01
7.300000000000002043e-01 1.654802821316647410e-01
7.310000000000003162e-01 1.821482340647909703e-01
7.320000000000002061e-01 1.988311562500001406e-01
7.330000000000003180e-01 2.002261290322619736e-01
7.340000000000002078e-01 2.128714849428924305e-01
7.350000000000003197e-01 2.309749585062186028e-01
7.360000000000002096e-01 2.171842634854782572e-01
7.370000000000003215e-01 2.395451034126490630e-01
7.380000000000002114e-01 3.142959100310296350e-01
7.390000000000003233e-01 3.488992724458342964e-01
7.400000000000002132e-01 3.857074175257745874e-01
7.410000000000003251e-01 4.052115242018690111e-01
7.420000000000002149e-01 4.393583658787289514e-01
7.430000000000003268e-01 4.569580986639317777e-01
7.440000000000002167e-01 4.717170769230790150e-01
7.450000000000003286e-01 4.771168474923236924e-01
7.460000000000002185e-01 4.765760900716474735e-01
7.470000000000003304e-01 4.771845965270694601e-01
7.480000000000002203e-01 4.792332313965343427e-01
7.490000000000003322e-01 4.790065596330270736e-01
7.500000000000002220e-01 4.784185707019328881e-01
7.510000000000003340e-01 4.784046646341463260e-01
7.520000000000002238e-01 4.774072791878168909e-01
7.530000000000003357e-01 4.760099189463015135e-01
7.540000000000002256e-01 4.753030921052630031e-01
7.550000000000003375e-01 4.734087967644074468e-01
7.560000000000002274e-01 4.533536024217881266e-01
7.570000000000003393e-01 4.558662247983937821e-01
7.580000000000002292e-01 4.536110725075494510e-01
7.590000000000003411e-01 4.458184507042238787e-01
7.600000000000002309e-01 4.305566666666620912e-01
7.610000000000003428e-01 4.238610531594785846e-01
7.620000000000002327e-01 4.121250100200359312e-01
7.630000000000003446e-01 4.022160499999977157e-01
7.640000000000002345e-01 3.955726623376606965e-01
7.650000000000003464e-01 3.936134431137726097e-01
7.660000000000002363e-01 3.896692629482054748e-01
7.670000000000003482e-01 3.884616716417915172e-01
7.680000000000002380e-01 3.907444731610345556e-01
7.690000000000003499e-01 3.923712996031750166e-01
7.700000000000002398e-01 3.908764285714277920e-01
7.710000000000003517e-01 3.863560979228464753e-01
7.720000000000002416e-01 3.761193818001947742e-01
7.730000000000003535e-01 3.594693534057188944e-01
7.740000000000002434e-01 3.514946449704139941e-01
7.750000000000003553e-01 3.488263582677150754e-01
7.760000000000002451e-01 3.397117846607634606e-01
7.770000000000003570e-01 3.296853339882092060e-01
7.780000000000002469e-01 3.181214082433714840e-01
7.790000000000003588e-01 3.035771645445586864e-01
7.800000000000002487e-01 2.823439823874681065e-01
7.810000000000003606e-01 2.611742871093699070e-01
7.820000000000002505e-01 2.523484146341455903e-01
7.830000000000003624e-01 2.441117446393713253e-01
7.840000000000002522e-01 2.420498198636846232e-01
7.850000000000003642e-01 2.536344314868814731e-01
7.860000000000002540e-01 2.548733850630451880e-01
7.870000000000003659e-01 2.562320174587808252e-01
7.880000000000002558e-01 2.639733494675725045e-01
7.890000000000003677e-01 2.715453675048370430e-01
7.900000000000002576e-01 2.736882770270256948e-01
7.910000000000003695e-01 2.667909739633516075e-01
7.920000000000002593e-01 2.539331280076964625e-01
7.930000000000003713e-01 2.410773772858475494e-01
7.940000000000002611e-01 2.297416282420742528e-01
7.950000000000003730e-01 2.268188446788101109e-01
7.960000000000002629e-01 2.241726318312552979e-01
7.970000000000003748e-01 2.184389942528716655e-01
7.980000000000002647e-01 2.139061244019127561e-01
7.990000000000003766e-01 2.171145845272220709e-01
8.000000000000002665e-01 2.297013645038208374e-01
8.010000000000003784e-01 2.360695471877994334e-01
8.020000000000002682e-01 2.365692435775449409e-01
8.030000000000003801e-01 2.430196958174941912e-01
8.040000000000002700e-01 2.502983618233634577e-01
8.050000000000003819e-01 2.486052417061584696e-01
8.060000000000002718e-01 2.532895170454587674e-01
8.070000000000003837e-01 2.643537145557686707e-01
8.080000000000002736e-01 2.651838951841336556e-01
8.090000000000003855e-01 2.666855424528367657e-01
8.100000000000002753e-01 2.849237382297601373e-01
8.110000000000003872e-01 3.029603715898456784e-01
8.120000000000002771e-01 3.175875352112740857e-01
8.130000000000003890e-01 3.382464305816177963e-01
8.140000000000002789e-01 3.485669493908189476e-01
8.150000000000003908e-01 3.606475492033784924e-01
8.160000000000002807e-01 3.692978905519200272e-01
8.170000000000003926e-01 3.846146028037442655e-01
8.180000000000002824e-01 3.893808442164186645e-01
8.190000000000003944e-01 3.980427166822037566e-01
8.200000000000002842e-01 4.065437337057750677e-01
8.210000000000003961e-01 4.122115427509312480e-01
8.220000000000002860e-01 4.056741782729753609e-01
8.230000000000003979e-01 4.076032669138181519e-01
8.240000000000002878e-01 4.188748518518504715e-01
8.250000000000003997e-01 4.100305781683550865e-01
8.260000000000002895e-01 3.983603878116369623e-01
