# Model: CoolTLusty
# Metallicity: 16.0 x solar
# col 0 - wavelength (microns)
# col 1 - geometric albedo
4.299999999999999933e-01 4.565654964539007099e-01
4.309999999999999942e-01 4.569480851063829618e-01
4.319999999999999951e-01 4.572715547703180006e-01
4.329999999999999960e-01 4.576132627865961422e-01
4.339999999999999969e-01 4.579167135325131754e-01
4.349999999999999978e-01 4.582678947368421518e-01
4.359999999999999987e-01 4.585989667250437440e-01
4.369999999999999996e-01 4.589078359511343796e-01
4.380000000000000004e-01 4.593907999999999880e-01
4.390000000000000013e-01 4.597384173913043881e-01
4.400000000000000022e-01 4.595935875216637934e-01
4.410000000000000031e-01 4.593782352941176428e-01
4.420000000000000040e-01 4.600510000000000432e-01
4.430000000000000049e-01 4.609476724137931414e-01
4.440000000000000058e-01 4.616671134020619016e-01
4.450000000000000067e-01 4.621828767123287718e-01
4.460000000000000075e-01 4.625790410958904308e-01
4.470000000000000084e-01 4.629864102564102968e-01
4.480000000000000093e-01 4.633870528109029219e-01
4.490000000000000102e-01 4.638022241086587893e-01
4.500000000000000111e-01 4.641949066213922337e-01
4.510000000000000120e-01 4.645503553299492050e-01
4.520000000000000129e-01 4.649586677908937871e-01
4.530000000000000138e-01 4.652710455311973581e-01
4.540000000000000147e-01 4.656421848739495939e-01
4.550000000000000155e-01 4.659481909547739109e-01
4.560000000000000164e-01 4.663438190954773965e-01
4.570000000000000173e-01 4.666252587646076977e-01
4.580000000000000182e-01 4.668320499999999984e-01
4.590000000000000191e-01 4.668225956738769056e-01
4.600000000000000200e-01 4.672359535655058460e-01
4.610000000000000209e-01 4.681085761589404148e-01
4.620000000000000218e-01 4.687528760330579303e-01
4.630000000000000226e-01 4.692572817133442986e-01
4.640000000000000235e-01 4.697073026315789490e-01
4.650000000000000244e-01 4.700671921182266177e-01
4.660000000000000253e-01 4.704037970540097535e-01
4.670000000000000262e-01 4.708366394779772146e-01
4.680000000000000271e-01 4.713260358890701274e-01
4.690000000000000280e-01 4.717830894308943646e-01
4.700000000000000289e-01 4.721741951219512456e-01
4.710000000000000298e-01 4.725720388349514689e-01
4.720000000000000306e-01 4.729089320388349393e-01
4.730000000000000315e-01 4.732893548387096527e-01
4.740000000000000324e-01 4.736994212218649802e-01
4.750000000000000333e-01 4.739738523274478199e-01
4.760000000000000342e-01 4.743156019261637324e-01
4.770000000000000351e-01 4.745511360000000400e-01
4.780000000000000360e-01 4.747256869009585101e-01
4.790000000000000369e-01 4.747416878980891819e-01
4.800000000000000377e-01 4.746493004769474777e-01
4.810000000000000386e-01 4.744923809523809433e-01
4.820000000000000395e-01 4.742644303797468597e-01
4.830000000000000404e-01 4.742919273301737793e-01
4.840000000000000413e-01 4.731146372239746767e-01
4.850000000000000422e-01 4.692787559055116020e-01
4.860000000000000431e-01 4.689947095761382578e-01
4.870000000000000440e-01 4.739596713615026324e-01
4.880000000000000449e-01 4.773801408450705774e-01
4.890000000000000457e-01 4.791603900156006790e-01
4.900000000000000466e-01 4.799288161993769397e-01
4.910000000000000475e-01 4.803200776397515970e-01
4.920000000000000484e-01 4.807648136645962800e-01
4.930000000000000493e-01 4.811296290571870360e-01
4.940000000000000502e-01 4.815649768160742417e-01
4.950000000000000511e-01 4.819118798151001415e-01
4.960000000000000520e-01 4.822566461538461691e-01
4.970000000000000528e-01 4.825860983102918667e-01
4.980000000000000537e-01 4.829139356814701189e-01
4.990000000000000546e-01 4.831281957186543963e-01
5.000000000000000000e-01 4.833720152671755477e-01
5.010000000000001119e-01 4.835650076103500949e-01
5.020000000000000018e-01 4.837501823708207360e-01
5.030000000000001137e-01 4.837755538694991642e-01
5.040000000000000036e-01 4.837852496217852072e-01
5.050000000000001155e-01 4.837549924357034681e-01
5.060000000000000053e-01 4.835710859728507005e-01
5.070000000000001172e-01 4.832530271084337081e-01
5.080000000000000071e-01 4.825948648648648587e-01
5.090000000000001190e-01 4.820219340329834345e-01
5.100000000000000089e-01 4.819303892215568985e-01
5.110000000000001208e-01 4.829584477611942317e-01
5.120000000000000107e-01 4.851093293591655087e-01
5.130000000000001226e-01 4.869710119047621077e-01
5.140000000000000124e-01 4.882095845697329572e-01
5.150000000000001243e-01 4.888451555555555772e-01
5.160000000000000142e-01 4.892428951255539116e-01
5.170000000000001261e-01 4.894537666174298418e-01
5.180000000000000160e-01 4.895627205882353006e-01
5.190000000000001279e-01 4.894090882352941096e-01
5.200000000000000178e-01 4.891231864904552751e-01
5.210000000000001297e-01 4.889892825768667461e-01
5.220000000000000195e-01 4.889239473684210413e-01
5.230000000000001315e-01 4.893943440233237130e-01
5.240000000000000213e-01 4.899092128279883274e-01
5.250000000000001332e-01 4.907650872093023975e-01
5.260000000000000231e-01 4.913805079825834810e-01
5.270000000000001350e-01 4.917963241678726116e-01
5.280000000000000249e-01 4.912795809248554080e-01
5.290000000000001368e-01 4.923385734870316943e-01
5.300000000000000266e-01 4.921065273775215854e-01
5.310000000000001386e-01 4.925029022988504646e-01
5.320000000000000284e-01 4.917928120516499302e-01
5.330000000000001403e-01 4.909622636103150861e-01
5.340000000000000302e-01 4.901484428571428187e-01
5.350000000000001421e-01 4.889053780313835640e-01
5.360000000000000320e-01 4.863882336182334676e-01
5.370000000000001439e-01 4.827171306818175966e-01
5.380000000000000338e-01 4.780134277620399219e-01
5.390000000000001457e-01 4.672592067988660669e-01
5.400000000000000355e-01 4.649214689265537270e-01
5.410000000000001474e-01 4.550117630465413399e-01
5.420000000000000373e-01 4.380867746478870894e-01
5.430000000000001492e-01 4.434086516853901205e-01
5.440000000000000391e-01 4.035609677419311758e-01
5.450000000000001510e-01 4.469575070028216635e-01
5.460000000000000409e-01 4.534544692737420557e-01
5.470000000000001528e-01 4.603928591352904331e-01
5.480000000000000426e-01 4.642431432545203185e-01
5.490000000000001545e-01 4.938190264255924444e-01
5.500000000000000444e-01 4.986845353675453119e-01
5.510000000000001563e-01 4.994846398891968353e-01
5.520000000000000462e-01 5.001808977900552566e-01
5.530000000000001581e-01 5.002347862068965423e-01
5.540000000000000480e-01 4.998836914600550685e-01
5.550000000000001599e-01 4.973536451169181527e-01
5.560000000000000497e-01 4.806272427983537265e-01
5.570000000000001616e-01 4.786893698630140248e-01
5.580000000000000515e-01 4.675970861833102510e-01
5.590000000000001634e-01 4.990421311475408683e-01
5.600000000000000533e-01 4.975520572207081660e-01
5.610000000000001652e-01 5.005100136054430049e-01
5.620000000000000551e-01 5.012892537313432539e-01
5.630000000000001670e-01 5.012388346883468460e-01
5.640000000000000568e-01 5.011110810810810445e-01
5.650000000000001688e-01 5.006154054054052782e-01
5.660000000000000586e-01 4.996831266846360475e-01
5.670000000000001705e-01 4.986367204301073164e-01
5.680000000000000604e-01 4.973195161290321353e-01
5.690000000000001723e-01 4.961398255033554472e-01
5.700000000000000622e-01 4.938963319946450548e-01
5.710000000000001741e-01 4.923047727272727991e-01
5.720000000000000639e-01 4.916657199999998618e-01
5.730000000000001759e-01 4.890527563248994736e-01
5.740000000000000657e-01 4.846513829787231775e-01
5.750000000000001776e-01 4.806692042440314783e-01
5.760000000000000675e-01 4.807331125827816742e-01
5.770000000000001794e-01 4.804802380952372665e-01
5.780000000000000693e-01 4.783522192866578870e-01
5.790000000000001812e-01 4.532507631579004159e-01
5.800000000000000711e-01 4.851602105263160825e-01
5.810000000000001830e-01 4.923501839684636394e-01
5.820000000000000728e-01 4.990123460026213431e-01
5.830000000000001847e-01 5.004730890052362380e-01
5.840000000000000746e-01 5.027724281984334853e-01
5.850000000000001865e-01 5.018078851174930799e-01
5.860000000000000764e-01 5.063601562500000819e-01
5.870000000000001883e-01 5.070159427828349052e-01
5.880000000000000782e-01 5.071886640726329665e-01
5.890000000000001901e-01 5.056133937823819036e-01
5.900000000000000799e-01 5.015544243208281960e-01
5.910000000000001918e-01 5.026797416020670761e-01
5.920000000000000817e-01 4.888065850515470046e-01
5.930000000000001936e-01 4.852453281853217337e-01
5.940000000000000835e-01 4.738027249357331105e-01
5.950000000000001954e-01 4.746797435897432416e-01
5.960000000000000853e-01 4.848236061381083206e-01
5.970000000000001972e-01 4.896455242966753496e-01
5.980000000000000870e-01 4.907691954022989633e-01
5.990000000000001990e-01 4.930426242038223328e-01
6.000000000000000888e-01 4.958520457433293616e-01
6.010000000000002007e-01 4.985467852604834049e-01
6.020000000000000906e-01 5.013289860583018953e-01
6.030000000000002025e-01 5.033517721518989685e-01
6.040000000000000924e-01 5.041501010101009372e-01
6.050000000000002043e-01 5.035953846153843338e-01
6.060000000000000941e-01 5.013307566204285859e-01
6.070000000000002061e-01 4.972313944723608103e-01
6.080000000000000959e-01 4.917984316185691207e-01
6.090000000000002078e-01 4.877288972431073066e-01
6.100000000000000977e-01 4.849041176470586523e-01
6.110000000000002096e-01 4.776756179775247801e-01
6.120000000000000995e-01 4.620051122194491766e-01
6.130000000000002114e-01 4.339575965130676449e-01
6.140000000000001013e-01 4.012000373134295139e-01
6.150000000000002132e-01 3.924445781637700970e-01
6.160000000000001030e-01 3.839209541511751644e-01
6.170000000000002149e-01 3.699025339925799405e-01
6.180000000000001048e-01 3.443662422744085960e-01
6.190000000000002167e-01 3.271656896551688454e-01
6.200000000000001066e-01 3.171717610837441748e-01
6.210000000000002185e-01 3.347568058968130034e-01
6.220000000000001084e-01 3.584636196319032075e-01
6.230000000000002203e-01 3.862241176470670445e-01
6.240000000000001101e-01 4.073681784841114983e-01
6.250000000000002220e-01 4.431033699633749601e-01
6.260000000000001119e-01 4.641663414634171758e-01
6.270000000000002238e-01 4.735465773447027349e-01
6.280000000000001137e-01 4.819980558930753167e-01
6.290000000000002256e-01 4.923018181818167860e-01
6.300000000000001155e-01 4.605078787878714164e-01
6.310000000000002274e-01 4.244793228536847263e-01
6.320000000000001172e-01 4.706726086956625754e-01
6.330000000000002292e-01 4.293259107358358695e-01
6.340000000000001190e-01 4.587465222623328676e-01
6.350000000000002309e-01 4.726604201680780770e-01
6.360000000000001208e-01 4.902768907563022638e-01
6.370000000000002327e-01 5.036481654676304709e-01
6.380000000000001226e-01 5.031962724014333865e-01
6.390000000000002345e-01 5.013989140811453415e-01
6.400000000000001243e-01 4.999706324582336991e-01
6.410000000000002363e-01 4.970092976190468304e-01
6.420000000000001261e-01 4.934030915576690934e-01
6.430000000000002380e-01 4.924055160142352117e-01
6.440000000000001279e-01 4.939897867298580492e-01
6.450000000000002398e-01 4.948759053254438434e-01
6.460000000000001297e-01 4.945927981109798366e-01
6.470000000000002416e-01 4.941170602125146138e-01
6.480000000000001315e-01 4.916919294117639283e-01
6.490000000000002434e-01 4.864180941176458606e-01
6.500000000000001332e-01 4.831977112676056896e-01
6.510000000000002451e-01 4.832959484777516468e-01
6.520000000000001350e-01 4.837525409836067047e-01
6.530000000000002469e-01 4.814182105263148381e-01
6.540000000000001368e-01 4.756354545454539728e-01
6.550000000000002487e-01 4.691471594877739126e-01
6.560000000000001386e-01 4.616062790697668672e-01
6.570000000000002505e-01 4.581131707317065982e-01
6.580000000000001403e-01 4.557870997679811520e-01
6.590000000000002522e-01 4.511181460023159229e-01
6.600000000000001421e-01 4.419431524249406440e-01
6.610000000000002540e-01 4.269042956120082111e-01
6.620000000000001439e-01 4.271332142857157677e-01
6.630000000000002558e-01 4.338103797468358946e-01
6.640000000000001457e-01 4.334277931034479781e-01
6.650000000000002576e-01 4.291826980482190690e-01
6.660000000000001474e-01 4.212239220183470745e-01
6.670000000000002593e-01 4.173013043478269180e-01
6.680000000000001492e-01 4.212182305936079119e-01
6.690000000000002611e-01 4.265998175598642583e-01
6.700000000000001510e-01 4.253390888382672097e-01
6.710000000000002629e-01 4.347738452787329733e-01
6.720000000000001528e-01 4.443975000000005005e-01
6.730000000000002647e-01 4.726050000000096007e-01
6.740000000000001545e-01 4.811092525481321935e-01
6.750000000000002665e-01 4.842530960451964517e-01
6.760000000000001563e-01 4.827994475761009929e-01
6.770000000000002682e-01 4.922298647125160631e-01
6.780000000000001581e-01 4.964190990990991481e-01
6.790000000000002700e-01 4.893986292134795968e-01
6.800000000000001599e-01 4.765028956228937185e-01
6.810000000000002718e-01 4.776481614349785687e-01
6.820000000000001616e-01 4.676416107382543319e-01
6.830000000000002736e-01 4.650366480446937456e-01
6.840000000000001634e-01 4.676781939799329879e-01
6.850000000000002753e-01 4.675601336302899202e-01
6.860000000000001652e-01 4.690451724137932876e-01
6.870000000000002771e-01 4.781241888888933533e-01
6.880000000000001670e-01 4.857917203107663395e-01
6.890000000000002789e-01 4.887501218161690586e-01
6.900000000000001688e-01 4.921367699115048455e-01
6.910000000000002807e-01 4.926350993377479615e-01
6.920000000000001705e-01 4.911726791620722454e-01
6.930000000000002824e-01 4.869095044052854648e-01
6.940000000000001723e-01 4.824535274725266776e-01
6.950000000000002842e-01 4.741549176728839243e-01
6.960000000000001741e-01 4.600636842105238489e-01
6.970000000000002860e-01 4.432767469879470568e-01
6.980000000000001759e-01 4.288868524590138120e-01
6.990000000000002878e-01 4.114247322404313012e-01
7.000000000000001776e-01 3.890086368593204114e-01
7.010000000000002895e-01 3.731016648530972035e-01
7.020000000000001794e-01 3.600919761129207641e-01
7.030000000000002913e-01 3.608482646420842488e-01
7.040000000000001812e-01 3.649090021691971941e-01
7.050000000000002931e-01 3.733596756756839552e-01
7.060000000000001830e-01 3.932094054054061649e-01
7.070000000000002949e-01 4.012134773218172246e-01
7.080000000000001847e-01 4.149511422413822981e-01
7.090000000000002967e-01 4.232596770721216428e-01
7.100000000000001865e-01 4.323632795698943432e-01
7.110000000000002984e-01 4.438185714285745043e-01
7.120000000000001883e-01 4.447525294748121971e-01
7.130000000000003002e-01 4.450965203426126005e-01
7.140000000000001901e-01 4.445304059829027210e-01
7.150000000000003020e-01 4.251329637526545802e-01
7.160000000000001918e-01 3.811909594882648689e-01
7.170000000000003038e-01 3.305828723404150571e-01
7.180000000000001936e-01 2.943330573248336135e-01
7.190000000000003055e-01 2.642103397027521505e-01
7.200000000000001954e-01 2.370335805084682335e-01
7.210000000000003073e-01 2.150054708994682262e-01
7.220000000000001972e-01 2.026045243128934137e-01
7.230000000000003091e-01 1.982739070749749699e-01
7.240000000000001990e-01 1.826182613277083089e-01
7.250000000000003109e-01 1.536309062170616302e-01
7.260000000000002007e-01 1.434688235294111769e-01
7.270000000000003126e-01 1.355242436974758991e-01
7.280000000000002025e-01 1.368938364779881678e-01
7.290000000000003144e-01 1.536444444444498292e-01
7.300000000000002043e-01 1.715689028213198963e-01
7.310000000000003162e-01 1.891878578892426943e-01
7.320000000000002061e-01 2.064270625000004800e-01
7.330000000000003180e-01 2.096606451612947342e-01
7.340000000000002078e-01 2.236623260643877120e-01
7.350000000000003197e-01 2.420787136929415384e-01
7.360000000000002096e-01 2.311847925311217855e-01
7.370000000000003215e-01 2.537786659772799380e-01
7.380000000000002114e-01 3.244157290589509968e-01
7.390000000000003233e-01 3.582605882353073201e-01
7.400000000000002132e-01 3.939797010309295522e-01
7.410000000000003251e-01 4.135988877446073464e-01
7.420000000000002149e-01 4.454644604316578826e-01
7.430000000000003268e-01 4.621927440904473605e-01
7.440000000000002167e-01 4.759812307692326550e-01
7.450000000000003286e-01 4.809950665301946926e-01
7.460000000000002185e-01 4.806006345957007930e-01
7.470000000000003304e-01 4.811439836567935058e-01
7.480000000000002203e-01 4.829514780835882926e-01
7.490000000000003322e-01 4.827217431192656338e-01
7.500000000000002220e-01 4.821747609359105513e-01
7.510000000000003340e-01 4.822330487804877830e-01
7.520000000000002238e-01 4.814036142131976614e-01
7.530000000000003357e-01 4.802201823708203698e-01
7.540000000000002256e-01 4.796135526315787878e-01
7.550000000000003375e-01 4.777539939332648977e-01
7.560000000000002274e-01 4.600295257315772379e-01
7.570000000000003393e-01 4.615678528225861665e-01
7.580000000000002292e-01 4.588431117824741667e-01
7.590000000000003411e-01 4.510264788732377128e-01
7.600000000000002309e-01 4.359866666666621926e-01
7.610000000000003428e-01 4.294139017051153973e-01
7.620000000000002327e-01 4.178518837675309627e-01
7.630000000000003446e-01 4.081519999999977943e-01
7.640000000000002345e-01 4.016047252747236840e-01
7.650000000000003464e-01 3.996449700598804222e-01
7.660000000000002363e-01 3.958160557768907739e-01
7.670000000000003482e-01 3.946285970149258082e-01
7.680000000000002380e-01 3.968303379721677127e-01
7.690000000000003499e-01 3.984068055555559096e-01
7.700000000000002398e-01 3.969271031746023914e-01
7.710000000000003517e-01 3.925222255192856724e-01
7.720000000000002416e-01 3.824872502472768665e-01
7.730000000000003535e-01 3.660218065152944789e-01
7.740000000000002434e-01 3.581215581854041985e-01
7.750000000000003553e-01 3.554787795275576312e-01
7.760000000000002451e-01 3.464388692232019951e-01
7.770000000000003570e-01 3.364712770137495146e-01
7.780000000000002469e-01 3.250486457311046462e-01
7.790000000000003588e-01 3.105381292850091790e-01
7.800000000000002487e-01 2.892288649706383219e-01
7.810000000000003606e-01 2.680596289062448512e-01
7.820000000000002505e-01 2.591952682926821350e-01
7.830000000000003624e-01 2.509542884990204614e-01
7.840000000000002522e-01 2.490896494644636305e-01
7.850000000000003642e-01 2.609559183673479388e-01
7.860000000000002540e-01 2.624444034917552959e-01
7.870000000000003659e-01 2.641020174587808134e-01
7.880000000000002558e-01 2.717663697967108716e-01
7.890000000000003677e-01 2.790892456479704409e-01
7.900000000000002576e-01 2.811207432432419329e-01
7.910000000000003695e-01 2.743189199614229357e-01
7.920000000000002593e-01 2.613206544754538285e-01
7.930000000000003713e-01 2.484566025024021463e-01
7.940000000000002611e-01 2.376763976945235612e-01
7.950000000000003730e-01 2.338585714285703332e-01
7.960000000000002629e-01 2.310014285714278304e-01
7.970000000000003748e-01 2.254850383141744075e-01
7.980000000000002647e-01 2.212802870813386780e-01
7.990000000000003766e-01 2.243881184336212475e-01
8.000000000000002665e-01 2.366163549618359729e-01
8.010000000000003784e-01 2.433153384175422151e-01
8.020000000000002682e-01 2.444074690770694225e-01
8.030000000000003801e-01 2.511309505703459566e-01
8.040000000000002700e-01 2.585208452041801719e-01
8.050000000000003819e-01 2.579353933649268793e-01
8.060000000000002718e-01 2.634622537878830162e-01
8.070000000000003837e-01 2.747619470699465549e-01
8.080000000000002736e-01 2.763633711048139041e-01
8.090000000000003855e-01 2.780265566037795066e-01
8.100000000000002753e-01 2.947287947269349173e-01
8.110000000000003872e-01 3.117203668861767141e-01
8.120000000000002771e-01 3.260038028169074953e-01
8.130000000000003890e-01 3.456132363977527655e-01
8.140000000000002789e-01 3.557157731958796587e-01
8.150000000000003908e-01 3.672621649484579254e-01
8.160000000000002807e-01 3.760498690364851293e-01
8.170000000000003926e-01 3.905050000000055976e-01
8.180000000000002824e-01 3.952584608208963290e-01
8.190000000000003944e-01 4.034547343895660276e-01
8.200000000000002842e-01 4.117652327746763596e-01
8.210000000000003961e-01 4.173118587360612475e-01
8.220000000000002860e-01 4.115720705663834522e-01
8.230000000000003979e-01 4.134328544949109618e-01
8.240000000000002878e-01 4.238147407407395484e-01
8.250000000000003997e-01 4.160626179463391972e-01
8.260000000000002895e-01 4.055808864265951219e-01
