# Model: CoolTLusty
# Metallicity: 8.0 x solar
# col 0 - wavelength (microns)
# col 1 - geometric albedo
4.299999999999999933e-01 4.567134751773049284e-01
4.309999999999999942e-01 4.570680851063829708e-01
4.319999999999999951e-01 4.574215547703179841e-01
4.329999999999999960e-01 4.577744268077601486e-01
4.339999999999999969e-01 4.581305297514436381e-01
4.349999999999999978e-01 4.585064661654135176e-01
4.359999999999999987e-01 4.588567675756817787e-01
4.369999999999999996e-01 4.592064073797058055e-01
4.380000000000000004e-01 4.596267826086956609e-01
4.390000000000000013e-01 4.599746086956521540e-01
4.400000000000000022e-01 4.601634315424610322e-01
4.410000000000000031e-01 4.602827978250123575e-01
4.420000000000000040e-01 4.608119704433497055e-01
4.430000000000000049e-01 4.613728817733990240e-01
4.440000000000000058e-01 4.619200294550809827e-01
4.450000000000000067e-01 4.623632093933464637e-01
4.460000000000000075e-01 4.627874755381604643e-01
4.470000000000000084e-01 4.631964102564102292e-01
4.480000000000000093e-01 4.636078364565587862e-01
4.490000000000000102e-01 4.640122241086587773e-01
4.500000000000000111e-01 4.644276740237691103e-01
4.510000000000000120e-01 4.648032632342277148e-01
4.520000000000000129e-01 4.652286677908937795e-01
4.530000000000000138e-01 4.655896410503492788e-01
4.540000000000000147e-01 4.660021848739496209e-01
4.550000000000000155e-01 4.663667623833452902e-01
4.560000000000000164e-01 4.667636276621201508e-01
4.570000000000000173e-01 4.671360839494395623e-01
4.580000000000000182e-01 4.674549285714285629e-01
4.590000000000000191e-01 4.676690278107915044e-01
4.600000000000000200e-01 4.680962331201137250e-01
4.610000000000000209e-01 4.686846972563860070e-01
4.620000000000000218e-01 4.691809681227863127e-01
4.630000000000000226e-01 4.696618263120734271e-01
4.640000000000000235e-01 4.701273026315789805e-01
4.650000000000000244e-01 4.705339901477832432e-01
4.660000000000000253e-01 4.709123684825812228e-01
4.670000000000000262e-01 4.713436261943603212e-01
4.680000000000000271e-01 4.718060358890701633e-01
4.690000000000000280e-01 4.722630894308942895e-01
4.700000000000000289e-01 4.726824390243902774e-01
4.710000000000000298e-01 4.730689320388349328e-01
4.720000000000000306e-01 4.734777623670827773e-01
4.730000000000000315e-01 4.738821198156682457e-01
4.740000000000000324e-01 4.742933394579697537e-01
4.750000000000000333e-01 4.746333868378812548e-01
4.760000000000000342e-01 4.750528089887640637e-01
4.770000000000000351e-01 4.754016228571428804e-01
4.780000000000000360e-01 4.757213601095390265e-01
4.790000000000000369e-01 4.759677206551410356e-01
4.800000000000000377e-01 4.761722461957756392e-01
4.810000000000000386e-01 4.763765306122448862e-01
4.820000000000000395e-01 4.765217902350813994e-01
4.830000000000000404e-01 4.768053712480252448e-01
4.840000000000000413e-01 4.765480847228480976e-01
4.850000000000000422e-01 4.750898987626545611e-01
4.860000000000000431e-01 4.752129401211034332e-01
4.870000000000000440e-01 4.776395036887995382e-01
4.880000000000000449e-01 4.793454728370222240e-01
4.890000000000000457e-01 4.803535101404056706e-01
4.900000000000000466e-01 4.809325322652426293e-01
4.910000000000000475e-01 4.813175465838509526e-01
4.920000000000000484e-01 4.817833850931677042e-01
4.930000000000000493e-01 4.821482004857585157e-01
4.940000000000000502e-01 4.825848973283285437e-01
4.950000000000000511e-01 4.829751045564605327e-01
4.960000000000000520e-01 4.833368791208791926e-01
4.970000000000000528e-01 4.837416282642089116e-01
4.980000000000000537e-01 4.841484795449572665e-01
4.990000000000000546e-01 4.844725644386195240e-01
5.000000000000000000e-01 4.847930861504907707e-01
5.010000000000001119e-01 4.851220917590780557e-01
5.020000000000000018e-01 4.854550151975683403e-01
5.030000000000001137e-01 4.857071536960763103e-01
5.040000000000000036e-01 4.860019667170953350e-01
5.050000000000001155e-01 4.861964771990491263e-01
5.060000000000000053e-01 4.863793794440852691e-01
5.070000000000001172e-01 4.864647590361445562e-01
5.080000000000000071e-01 4.864262548262547892e-01
5.090000000000001190e-01 4.863868922681516827e-01
5.100000000000000089e-01 4.866089606501283193e-01
5.110000000000001208e-01 4.872970788912581175e-01
5.120000000000000107e-01 4.884929529486907729e-01
5.130000000000001226e-01 4.895142006802722379e-01
5.140000000000000124e-01 4.902997032640949437e-01
5.150000000000001243e-01 4.907994920634921043e-01
5.160000000000000142e-01 4.912013715973834183e-01
5.170000000000001261e-01 4.915198354083140098e-01
5.180000000000000160e-01 4.918330042016807457e-01
5.190000000000001279e-01 4.919780672268907473e-01
5.200000000000000178e-01 4.920680931403398350e-01
5.210000000000001297e-01 4.922566827023635572e-01
5.220000000000000195e-01 4.924472431077694390e-01
5.230000000000001315e-01 4.929057892544774222e-01
5.240000000000000213e-01 4.934322365680966493e-01
5.250000000000001332e-01 4.939838039867110453e-01
5.260000000000000231e-01 4.945166908563135011e-01
5.270000000000001350e-01 4.950007442629729137e-01
5.280000000000000249e-01 4.952689512799339222e-01
5.290000000000001368e-01 4.956945862494853694e-01
5.300000000000000266e-01 4.959064635652531972e-01
5.310000000000001386e-01 4.960848727422003113e-01
5.320000000000000284e-01 4.960148596023775114e-01
5.330000000000001403e-01 4.958510437986082264e-01
5.340000000000000302e-01 4.956875918367347200e-01
5.350000000000001421e-01 4.953335642959037499e-01
5.360000000000000320e-01 4.943290191290191093e-01
5.370000000000001439e-01 4.927502435064932684e-01
5.380000000000000338e-01 4.907537838931607665e-01
5.390000000000001457e-01 4.878056657223793224e-01
5.400000000000000355e-01 4.852859160613395839e-01
5.410000000000001474e-01 4.801153536167628300e-01
5.420000000000000373e-01 4.733103621730381794e-01
5.430000000000001492e-01 4.726884430176561125e-01
5.440000000000000391e-01 4.641866359446994439e-01
5.450000000000001510e-01 4.818030212084905006e-01
5.460000000000000409e-01 4.887209098164405630e-01
5.470000000000001528e-01 4.931429966128726416e-01
5.480000000000000426e-01 4.957154977150804998e-01
5.490000000000001545e-01 5.020830319888737181e-01
5.500000000000000444e-01 5.032476718842877617e-01
5.510000000000001563e-01 5.037753660466957051e-01
5.520000000000000462e-01 5.041455011838990030e-01
5.530000000000001581e-01 5.043751527093596199e-01
5.540000000000000480e-01 5.044536009445100833e-01
5.550000000000001599e-01 5.041795637649831852e-01
5.560000000000000497e-01 5.020810895551636177e-01
5.570000000000001616e-01 5.021674363992173484e-01
5.580000000000000515e-01 5.004192495602891588e-01
5.590000000000001634e-01 5.054945940671351501e-01
5.600000000000000533e-01 5.056896068509147968e-01
5.610000000000001652e-01 5.063553547133140542e-01
5.620000000000000551e-01 5.066040317891064015e-01
5.630000000000001670e-01 5.068059233449477841e-01
5.640000000000000568e-01 5.068971042471042132e-01
5.650000000000001688e-01 5.068092664092663790e-01
5.660000000000000586e-01 5.065453215248363339e-01
5.670000000000001705e-01 5.062301459293393480e-01
5.680000000000000604e-01 5.057369815668202317e-01
5.690000000000001723e-01 5.053565675934802437e-01
5.700000000000000622e-01 5.049128322815069625e-01
5.710000000000001741e-01 5.042485867074102401e-01
5.720000000000000639e-01 5.037275809523809045e-01
5.730000000000001759e-01 5.026169298078748682e-01
5.740000000000000657e-01 5.004047112462004510e-01
5.750000000000001776e-01 4.986885562713146980e-01
5.760000000000000675e-01 4.983694418164618112e-01
5.770000000000001794e-01 4.995095804988662902e-01
5.780000000000000693e-01 5.000906397433478867e-01
5.790000000000001812e-01 4.980672932330839631e-01
5.800000000000000711e-01 5.053359774436091412e-01
5.810000000000001830e-01 5.081000938614609330e-01
5.820000000000000728e-01 5.102170567309493032e-01
5.830000000000001847e-01 5.112477935676890128e-01
5.840000000000000746e-01 5.121240954867587458e-01
5.850000000000001865e-01 5.124651622528906270e-01
5.860000000000000764e-01 5.134162760416666194e-01
5.870000000000001883e-01 5.137707969533716890e-01
5.880000000000000782e-01 5.139685380767093914e-01
5.890000000000001901e-01 5.137382309400442271e-01
5.900000000000000799e-01 5.130762335982258504e-01
5.910000000000001918e-01 5.123708748615722897e-01
5.920000000000000817e-01 5.094336708394699986e-01
5.930000000000001936e-01 5.089629343629332725e-01
5.940000000000000835e-01 5.057723466764596498e-01
5.950000000000001954e-01 5.043501831501829846e-01
5.960000000000000853e-01 5.050059188892950246e-01
5.970000000000001972e-01 5.056617829740592818e-01
5.980000000000000870e-01 5.063532019704434228e-01
5.990000000000001990e-01 5.078715559599640272e-01
6.000000000000000888e-01 5.096397894354692815e-01
6.010000000000002007e-01 5.112758032310767975e-01
6.020000000000000906e-01 5.129474379866015843e-01
6.030000000000002025e-01 5.141598553345390066e-01
6.040000000000000924e-01 5.146891774891775295e-01
6.050000000000002043e-01 5.145362637362635994e-01
6.060000000000000941e-01 5.134824896415058904e-01
6.070000000000002061e-01 5.114281586503942600e-01
6.080000000000000959e-01 5.086213299874526861e-01
6.090000000000002078e-01 5.064609738632293023e-01
6.100000000000000977e-01 5.049734489540496085e-01
6.110000000000002096e-01 5.008634028892435808e-01
6.120000000000000995e-01 4.914693623085130691e-01
6.130000000000002114e-01 4.751092688133736752e-01
6.140000000000001013e-01 4.546031449893368492e-01
6.150000000000002132e-01 4.453161999291015416e-01
6.160000000000001030e-01 4.377863338643992464e-01
6.170000000000002149e-01 4.265465301077138172e-01
6.180000000000001048e-01 4.057000706339361495e-01
6.190000000000002167e-01 3.918327058409548092e-01
6.200000000000001066e-01 3.874036769880375708e-01
6.210000000000002185e-01 4.021840119340160946e-01
6.220000000000001084e-01 4.206572655565308239e-01
6.230000000000002203e-01 4.413975490196135887e-01
6.240000000000001101e-01 4.624304226336032886e-01
6.250000000000002220e-01 4.827514913657802165e-01
6.260000000000001119e-01 4.962547038327542737e-01
6.270000000000002238e-01 5.044024012528288692e-01
6.280000000000001137e-01 5.096979691025868009e-01
6.290000000000002256e-01 5.137172467532468145e-01
6.300000000000001155e-01 5.056589264069243361e-01
6.310000000000002274e-01 4.956511832786310578e-01
6.320000000000001172e-01 5.117528640441719734e-01
6.330000000000002292e-01 4.981144408064826501e-01
6.340000000000001190e-01 5.075314938971970946e-01
6.350000000000002309e-01 5.107176470588269401e-01
6.360000000000001208e-01 5.166780998113531531e-01
6.370000000000002327e-01 5.187280061664960584e-01
6.380000000000001226e-01 5.185014848950331157e-01
6.390000000000002345e-01 5.172964370951241841e-01
6.400000000000001243e-01 5.161806000681894435e-01
6.410000000000002363e-01 5.144016836734689457e-01
6.420000000000001261e-01 5.125071853235940722e-01
6.430000000000002380e-01 5.119568886629386473e-01
6.440000000000001279e-01 5.127835646580908291e-01
6.450000000000002398e-01 5.132428571428571118e-01
6.460000000000001297e-01 5.130752740765727182e-01
6.470000000000002416e-01 5.124744138977902486e-01
6.480000000000001315e-01 5.105902352941172895e-01
6.490000000000002434e-01 5.080328739495794110e-01
6.500000000000001332e-01 5.068152414486921664e-01
6.510000000000002451e-01 5.067217798594846334e-01
6.520000000000001350e-01 5.071993810639011668e-01
6.530000000000002469e-01 5.061001336675016171e-01
6.540000000000001368e-01 5.025713952713948274e-01
6.550000000000002487e-01 4.977787959421236530e-01
6.560000000000001386e-01 4.933745348837207945e-01
6.570000000000002505e-01 4.920586195453786615e-01
6.580000000000001403e-01 4.906424593967516068e-01
6.590000000000002522e-01 4.886325442807475938e-01
6.600000000000001421e-01 4.856416199274162793e-01
6.610000000000002540e-01 4.817956944902664351e-01
6.620000000000001439e-01 4.793423469387753100e-01
6.630000000000002558e-01 4.779085155350973890e-01
6.640000000000001457e-01 4.767140229885056257e-01
6.650000000000002576e-01 4.743454485812687027e-01
6.660000000000001474e-01 4.675872214941008687e-01
6.670000000000002593e-01 4.648508336057540213e-01
6.680000000000001492e-01 4.674241193737773137e-01
6.690000000000002611e-01 4.717401694086996167e-01
6.700000000000001510e-01 4.764059550927440823e-01
6.710000000000002629e-01 4.841492767755596893e-01
6.720000000000001528e-01 4.919946428571442265e-01
6.730000000000002647e-01 5.041091836734730158e-01
6.740000000000001545e-01 5.094572722860386538e-01
6.750000000000002665e-01 5.134501694915257763e-01
6.760000000000001563e-01 5.153687228217108673e-01
6.770000000000002682e-01 5.180674343694642303e-01
6.780000000000001581e-01 5.191987129987130078e-01
6.790000000000002700e-01 5.168610272873183087e-01
6.800000000000001599e-01 5.113449414782739177e-01
6.810000000000002718e-01 5.084640134529142541e-01
6.820000000000001616e-01 5.022488974113124005e-01
6.830000000000002736e-01 4.978786272944939473e-01
6.840000000000001634e-01 5.005166587036153913e-01
6.850000000000002753e-01 5.021554247534205651e-01
6.860000000000001652e-01 5.039413793103453276e-01
6.870000000000002771e-01 5.073232857142869756e-01
6.880000000000001670e-01 5.099551767876965291e-01
6.890000000000002789e-01 5.117597057427627494e-01
6.900000000000001688e-01 5.138945796460179238e-01
6.910000000000002807e-01 5.140096184169028470e-01
6.920000000000001705e-01 5.126208694282559097e-01
6.930000000000002824e-01 5.087695248584008789e-01
6.940000000000001723e-01 5.057684929356353054e-01
6.950000000000002842e-01 5.008490669593834710e-01
6.960000000000001741e-01 4.927703007518783318e-01
6.970000000000002860e-01 4.822774057268001680e-01
6.980000000000001759e-01 4.710384231069454364e-01
6.990000000000002878e-01 4.580400780640082603e-01
7.000000000000001776e-01 4.426718024614402780e-01
7.010000000000002895e-01 4.290321156536573421e-01
7.020000000000001794e-01 4.176781603846752566e-01
7.030000000000002913e-01 4.198513170127071148e-01
7.040000000000001812e-01 4.239721722962502271e-01
7.050000000000002931e-01 4.304208185328249892e-01
7.060000000000001830e-01 4.457753359073364230e-01
7.070000000000002949e-01 4.515155507559417969e-01
7.080000000000001847e-01 4.621569273399038780e-01
7.090000000000002967e-01 4.681884361064130862e-01
7.100000000000001865e-01 4.745429339477740260e-01
7.110000000000002984e-01 4.825956728556106134e-01
7.120000000000001883e-01 4.835079467156636612e-01
7.130000000000003002e-01 4.841106301621293517e-01
7.140000000000001901e-01 4.832365995115971424e-01
7.150000000000003020e-01 4.691812975936568986e-01
7.160000000000001918e-01 4.377910447761129142e-01
7.170000000000003038e-01 3.957849544072847281e-01
7.180000000000001936e-01 3.612051865332056577e-01
7.190000000000003055e-01 3.335215953897404662e-01
7.200000000000001954e-01 3.072847457627058687e-01
7.210000000000003073e-01 2.840276492819308607e-01
7.220000000000001972e-01 2.667625339776463766e-01
7.230000000000003091e-01 2.619152059134129962e-01
7.240000000000001990e-01 2.448372271563994118e-01
7.250000000000003109e-01 2.103547644136576356e-01
7.260000000000002007e-01 2.008374249699882985e-01
7.270000000000003126e-01 1.933638355342104931e-01
7.280000000000002025e-01 1.952557053009892352e-01
7.290000000000003144e-01 2.142730158730219991e-01
7.300000000000002043e-01 2.348268248992425034e-01
7.310000000000003162e-01 2.537520973279652758e-01
7.320000000000002061e-01 2.718758928571441413e-01
7.330000000000003180e-01 2.792023041474712142e-01
7.340000000000002078e-01 2.966075804776791558e-01
7.350000000000003197e-01 3.125422050977993971e-01
7.360000000000002096e-01 2.955253704801457659e-01
7.370000000000003215e-01 3.242953316590636015e-01
7.380000000000002114e-01 3.920311715172158373e-01
7.390000000000003233e-01 4.209906236178790895e-01
7.400000000000002132e-01 4.517443593519903655e-01
7.410000000000003251e-01 4.668276151243275773e-01
7.420000000000002149e-01 4.851594626339764682e-01
7.430000000000003268e-01 4.955676699456795786e-01
7.440000000000002167e-01 5.038237362637372208e-01
7.450000000000003286e-01 5.064666325486184562e-01
7.460000000000002185e-01 5.067479017400204899e-01
7.470000000000003304e-01 5.070292718517439567e-01
7.480000000000002203e-01 5.075181010630552825e-01
7.490000000000003322e-01 5.073318479685449134e-01
7.500000000000002220e-01 5.070034006685074646e-01
7.510000000000003340e-01 5.073166811846691049e-01
7.520000000000002238e-01 5.073425525743291420e-01
7.530000000000003357e-01 5.070325227963524695e-01
7.540000000000002256e-01 5.067022556390976540e-01
7.550000000000003375e-01 5.056265347392743248e-01
7.560000000000002274e-01 5.014705059824116073e-01
7.570000000000003393e-01 4.986279953917047147e-01
7.580000000000002292e-01 4.944207596029334684e-01
7.590000000000003411e-01 4.881873239436597123e-01
7.600000000000002309e-01 4.769761904761874449e-01
7.610000000000003428e-01 4.722752829918325790e-01
7.620000000000002327e-01 4.637045662754049613e-01
7.630000000000003446e-01 4.566006142857126360e-01
7.640000000000002345e-01 4.515457827886386610e-01
7.650000000000003464e-01 4.499581693755347889e-01
7.660000000000002363e-01 4.471828685258952274e-01
7.670000000000003482e-01 4.462115565031985476e-01
7.680000000000002380e-01 4.476443339960243240e-01
7.690000000000003499e-01 4.486427437641725691e-01
7.700000000000002398e-01 4.473757369614506096e-01
7.710000000000003517e-01 4.440650699448903671e-01
7.720000000000002416e-01 4.364558570015519834e-01
7.730000000000003535e-01 4.234245522493247371e-01
7.740000000000002434e-01 4.170204282896588510e-01
7.750000000000003553e-01 4.146901012373440665e-01
7.760000000000002451e-01 4.070201151847140930e-01
7.770000000000003570e-01 3.986720881279796069e-01
7.780000000000002469e-01 3.892904948829349343e-01
7.790000000000003588e-01 3.765360151112303044e-01
7.800000000000002487e-01 3.567837573385449490e-01
7.810000000000003606e-01 3.370092912946379138e-01
7.820000000000002505e-01 3.284086550522640202e-01
7.830000000000003624e-01 3.203571428571381219e-01
7.840000000000002522e-01 3.186140075114798353e-01
7.850000000000003642e-01 3.302477717617670061e-01
7.860000000000002540e-01 3.321239711791603155e-01
7.870000000000003659e-01 3.344148815297243171e-01
7.880000000000002558e-01 3.415094731019241436e-01
7.890000000000003677e-01 3.474199088145905057e-01
7.900000000000002576e-01 3.483207528957516508e-01
7.910000000000003695e-01 3.419164072186212100e-01
7.920000000000002593e-01 3.300514230716319330e-01
7.930000000000003713e-01 3.190810532105012864e-01
7.940000000000002611e-01 3.097977356936993942e-01
7.950000000000003730e-01 3.027181618956295006e-01
7.960000000000002629e-01 2.994446377208592747e-01
7.970000000000003748e-01 2.945482758620673325e-01
7.980000000000002647e-01 2.914474504442917668e-01
7.990000000000003766e-01 2.937360485741584704e-01
8.000000000000002665e-01 3.046915212649980442e-01
8.010000000000003784e-01 3.127206863679719562e-01
8.020000000000002682e-01 3.134696071768380277e-01
8.030000000000003801e-01 3.186827267789275608e-01
8.040000000000002700e-01 3.259193732193750859e-01
8.050000000000003819e-01 3.272002031144201628e-01
8.060000000000002718e-01 3.345655573593119270e-01
8.070000000000003837e-01 3.472881447475059669e-01
8.080000000000002736e-01 3.514388236881145766e-01
8.090000000000003855e-01 3.539002695417833855e-01
8.100000000000002753e-01 3.657943233790721393e-01
8.110000000000003872e-01 3.772215024862291544e-01
8.120000000000002771e-01 3.874647887323980355e-01
8.130000000000003890e-01 3.994507102653474528e-01
8.140000000000002789e-01 4.069351051010872133e-01
8.150000000000003908e-01 4.161063462310919392e-01
8.160000000000002807e-01 4.240271682480309945e-01
8.170000000000003926e-01 4.318695727636878146e-01
8.180000000000002824e-01 4.332460421108742521e-01
8.190000000000003944e-01 4.398244840900048525e-01
8.200000000000002842e-01 4.466843841447211139e-01
8.210000000000003961e-01 4.505160913436015990e-01
8.220000000000002860e-01 4.466569173630424716e-01
8.230000000000003979e-01 4.468289951012886507e-01
8.240000000000002878e-01 4.536485714285717341e-01
8.250000000000003997e-01 4.511407823443857046e-01
8.260000000000002895e-01 4.445231895528312105e-01
